0,1,2,3,4,5,6,7,8,9,10,11,12,13,14,15,16,17,18,19,20,21,22,23,24,25,26,27,28,29,30,31,32,33,34,35,36,37,38,39,40,41,42,43,44,45,46,47,48,49,50,51,52,53,54,55,56,57,58,59,60,61,62,63,64,65,66,67,68,69,70,71,72,73,74,75,76,77,78,79,80,81,82,83,84,85,86,87,88,89,90,91,92,93,94,95,96,97,98,99,100,101,102,103,104,105,106,107,108,109,110,111,112,113,114,115,116,117,118,119,120,121,122,123,124,125,126,127,128,129,130,131,132,133,134,135,136,137,138,139,140,141,142,143,144,145,146,147,148,149,150,151,152,153,154,155,156,157,158,159,160,161,162,163,164,165,166,167,168,169,170,171,172,173,174,175,176,177,178,179,180,181,182,183,184,185,186,187,188,189,190,191,192,193,194,195,196,197,198,199,200,201,202,203,204,205,206,207,208,209,210,211,212,213,214,215,216,217,218,219,220,221,222,223,224,225,226,227,228,229,230,231,232,233,234,235,236,237,238,239,240,241,242,243,244,245,246,247,248,249,250,251,252,253,254,255,256,257,258,259,260,261,262,263,264,265,266,267,268,269,270,271,272,273,274,275,276,277,278,279,280,281,282,283,284,285,286,287,288,289,290,291,292,293,294,295,296,297,298,299,300,301,302,303,304
3.5509,3.5508,3.55,3.5484,3.5479,3.5476,3.5479,3.5487,3.5508,3.5528,3.5547,3.5567,3.5588,3.5618,3.5648,3.5668,3.5689,3.5711,3.5711,3.5629,3.5449,3.5355,3.5309,3.5293,3.5295,3.5303,3.5322,3.5352,3.5371,3.5385,3.5405,3.5432,3.5454,3.5468,3.5481,3.5476,3.5467,3.5454,3.5455,3.5457,3.5456,3.5479,3.5498,3.5518,3.5541,3.5563,3.5604,3.5627,3.5654,3.5677,3.5698,3.5676,3.5525,3.5368,3.5314,3.5286,3.5271,3.5277,3.5293,3.5313,3.5328,3.5337,3.5359,3.5374,3.5399,3.5417,3.5433,3.5439,3.5434,3.5437,3.5428,3.5426,3.543,3.5437,3.5462,3.5478,3.5499,3.5518,3.5557,3.5579,3.5605,3.5636,3.5658,3.5651,3.5556,3.5384,3.5307,3.5271,3.5254,3.5254,3.5266,3.5282,3.5302,3.5314,3.5325,3.5341,3.5371,3.5395,3.5411,3.5417,3.5412,3.5405,3.5404,3.5401,3.5403,3.5408,3.5417,3.5439,3.5464,3.5489,3.5512,3.5537,3.5562,3.5594,3.5617,3.5625,3.5582,3.5442,3.532,3.5268,3.524,3.5232,3.5244,3.5256,3.5279,3.5305,3.532,3.5341,3.5359,3.5383,3.5405,3.5407,3.5396,3.5383,3.5374,3.5371,3.5375,3.5383,3.5394,3.5407,3.5425,3.5446,3.5472,3.5495,3.5523,3.5549,3.5566,3.5552,3.5467,3.5332,3.5266,3.5229,3.5211,3.5209,3.5226,3.5245,3.5256,3.5276,3.5288,3.5309,3.5325,3.5333,3.5345,3.5336,3.5337,3.533,3.5325,3.5324,3.5328,3.5349,3.5363,3.538,3.5409,3.5428,3.545,3.5475,3.5503,3.5506,3.5471,3.535,3.5263,3.5217,3.5185,3.5174,3.5173,3.5189,3.5201,3.522,3.5232,3.5242,3.5255,3.5274,3.5294,3.5305,3.5295,3.5295,3.529,3.5283,3.528,3.5283,3.5301,3.5316,3.5328,3.5356,3.5372,3.54,3.5427,3.5443,3.5427,3.535,3.5245,3.5194,3.5156,3.5136,3.5138,3.5146,3.5155,3.517,3.5177,3.519,3.5209,3.5223,3.5248,3.5255,3.526,3.5252,3.5244,3.5238,3.5233,3.5244,3.5247,3.527,3.5284,3.5307,3.5328,3.5358,3.5386,3.5395,3.5373,3.5274,3.5187,3.514,3.5114,3.5098,3.5094,3.5109,3.512,3.5131,3.5144,3.5159,3.5175,3.5195,3.5206,3.5216,3.5227,3.5222,3.5212,3.5201,3.5203,3.521,3.5218,3.5242,3.5267,3.5288,3.5308,3.5341,3.5364,3.5369,3.5331,3.523,3.515,3.5099,3.5079,3.5075,3.5076,3.5082,3.5091,3.5106,3.5121,3.5142,3.5158,3.5178,3.5192,3.5201,3.5197,3.5199,3.5191,3.5189,3.519,3.5199,3.521,3.5227,3.5244,3.5274,3.5306,3.5332,3.5358,3.5378,3.5402,3.5392,,Serial,1,ID,1
3.4917,3.4936,3.4959,3.496,3.4884,3.4747,3.4673,3.4635,3.4615,3.4604,3.4623,3.4632,3.4651,3.4662,3.4673,3.4683,3.4704,3.4718,3.4727,3.473,3.4726,3.4724,3.4724,3.4722,3.4724,3.4728,3.4745,3.4756,3.4779,3.4801,3.482,3.4834,3.4853,3.4863,3.4885,3.4908,3.4927,3.4943,3.4956,3.4952,3.4868,3.4724,3.4657,3.4628,3.4616,3.4617,3.462,3.4631,3.4643,3.4661,3.4674,3.4679,3.4698,3.471,3.4726,3.4726,3.4732,3.473,3.4723,3.4721,3.472,3.4734,3.474,3.4758,3.4785,3.4797,3.4818,3.4835,3.4862,3.4876,3.489,3.4911,3.4925,3.4941,3.4967,3.4968,3.4916,3.4774,3.4682,3.464,3.4625,3.4618,3.4626,3.4639,3.4661,3.4685,3.4701,3.4712,3.4724,3.4737,3.4755,3.4751,3.4754,3.474,3.4731,3.4725,3.4728,3.4742,3.4753,3.4769,3.479,3.4804,3.4824,3.4838,3.4857,3.4883,3.4899,3.4914,3.4928,3.4937,3.4921,3.4818,3.4706,3.4652,3.4619,3.4603,3.4601,3.4618,3.4638,3.465,3.4659,3.4675,3.4683,3.4697,3.4716,3.4729,3.4724,3.4714,3.4716,3.4711,3.4713,3.4719,3.4727,3.4743,3.4763,3.4772,3.4788,3.4811,3.4827,3.4843,3.4862,3.4886,3.4907,3.4908,3.4862,3.4736,3.4656,3.4618,3.4592,3.4579,3.4576,3.4584,3.4598,3.4608,3.4614,3.4617,3.4627,3.4646,3.4661,3.4667,3.4676,3.4673,3.4666,3.4661,3.466,3.4674,3.4677,3.4687,3.4699,3.4719,3.4741,3.4754,3.4774,3.4792,3.4814,3.483,3.4844,3.4839,3.4779,3.4672,3.4617,3.4569,3.4549,3.4538,3.4539,3.455,3.456,3.4564,3.4567,3.4578,3.4598,3.4609,3.4625,3.4626,3.4629,3.4634,3.4623,3.4632,3.4633,3.4639,3.4649,3.4662,3.4669,3.468,3.4696,3.4719,3.4732,3.4747,3.4768,3.4785,3.4802,3.4815,3.4818,3.4781,3.4671,3.4595,3.4551,3.4525,3.4518,3.4519,3.4529,3.454,3.4552,3.4553,3.4564,3.4579,3.4596,3.4607,3.4613,3.4621,3.4616,3.4608,3.4608,3.4613,3.4621,3.4627,3.4643,3.4655,3.4664,3.4683,3.4698,3.4712,3.4722,3.4733,3.4755,3.4775,3.4794,3.4806,3.4803,3.4745,3.4642,3.4575,3.4542,3.4522,3.4515,3.4519,3.4532,3.4549,3.4565,3.4574,3.4581,3.4595,3.4612,3.4617,3.4614,3.4612,3.4615,3.4605,3.4606,3.4612,3.4617,3.4627,3.4641,3.4663,3.4669,3.4681,3.4696,3.4716,3.4724,3.474,3.4761,3.4777,3.4788,3.4785,3.4738,3.4633,3.4565,3.4528,3.4502,3.4499,3.4502,3.4517,3.4527,3.4543,3.4543,3.4558,3.4572,3.4584,3.4594,3.4594,,,2.0,,1.0
3.4685,3.47,3.4706,3.4713,3.4723,3.473,3.4745,3.4756,3.476,3.474,3.467,3.4587,3.454,3.4505,3.4494,3.4491,3.449,3.45,3.4512,3.4516,3.4533,3.454,3.4552,3.4566,3.458,3.4588,3.4587,3.4581,3.4576,3.4577,3.4585,3.4591,3.4596,3.4608,3.4626,3.4638,3.4648,3.4663,3.4684,3.4698,3.4718,3.4744,3.4774,3.4799,3.4819,3.4826,3.4762,3.4632,3.4549,3.4509,3.4491,3.4484,3.4491,3.4505,3.4525,3.4536,3.4541,3.4553,3.4567,3.4587,3.4597,3.4611,3.4615,3.461,3.4603,3.4606,3.4609,3.4615,3.4618,3.4637,3.466,3.4679,3.4693,3.4707,3.4733,3.4754,3.4768,3.4785,3.4805,3.4829,3.485,3.4856,3.4824,3.4687,3.4576,3.4526,3.4499,3.4497,3.4509,3.4521,3.4534,3.4552,3.4562,3.4577,3.4599,3.4617,3.4621,3.4632,3.4622,3.4616,3.4619,3.4618,3.4621,3.4628,3.4644,3.4659,3.4677,3.4691,3.4716,3.4733,3.475,3.477,3.4794,3.4816,3.4832,3.4861,3.4871,3.4844,3.4718,3.4601,3.4545,3.4515,3.45,3.4506,3.4516,3.453,3.4553,3.4561,3.4566,3.4583,3.4602,3.4622,3.4629,3.4634,3.4634,3.4632,3.4636,3.4631,3.4635,3.4641,3.4652,3.4667,3.4695,3.4714,3.4734,3.4761,3.4783,3.4799,3.4825,3.4843,3.4865,3.4889,3.4889,3.482,3.466,3.4572,3.4534,3.4516,3.4512,3.452,3.453,3.4547,3.4565,3.458,3.4589,3.46,3.4626,3.4638,3.4644,3.4643,3.4645,3.4644,3.4641,3.4652,3.4653,3.4663,3.468,3.4698,3.4725,3.4752,3.4766,3.4785,3.4809,3.4826,3.4854,3.4875,3.4899,3.4914,3.4901,3.4786,3.4632,3.4571,3.4536,3.4527,3.453,3.454,3.4558,3.4571,3.4588,3.4602,3.4617,3.4633,3.4647,3.4661,3.4669,3.4663,3.4655,3.465,3.4658,3.4663,3.4671,3.4681,3.4697,3.4715,3.4742,3.4761,3.4779,3.4807,3.4831,3.4853,3.4873,3.4895,3.4915,3.4895,3.4765,3.4621,3.4569,3.4541,3.4529,3.4537,3.4554,3.4571,3.459,3.4612,3.4629,3.4643,3.4664,3.4676,3.4682,3.4678,3.4667,3.4653,3.4652,3.4657,3.4672,3.468,3.4697,3.4708,3.4728,3.4748,3.4774,3.4789,3.4809,3.4834,3.4856,3.4873,3.4876,3.4817,3.4672,3.4582,3.4544,3.4524,3.4519,3.4518,3.4537,3.4557,3.4572,3.4577,3.4593,3.461,3.4629,3.4634,3.4635,3.4636,3.4632,3.4631,3.4631,3.4631,3.4638,3.4653,3.4667,3.469,3.4704,3.4726,3.4744,3.4771,3.4794,3.4818,3.484,3.4855,3.4846,3.4771,3.463,3.4554,3.4514,3.4491,3.4483,3.4492,3.4504,3.4516,,,3.0,,1.0
3.4275,3.4275,3.4281,3.4295,3.4313,3.4339,3.436,3.4384,3.4409,3.4441,3.4464,3.4479,3.4508,3.4527,3.4553,3.4574,3.4596,3.4606,3.4588,3.4496,3.4369,3.4251,3.4191,3.4174,3.4169,3.4189,3.4202,3.4226,3.4248,3.4276,3.431,3.4343,3.4362,3.4374,3.4383,3.4375,3.4374,3.4372,3.4372,3.4391,3.4407,3.4434,3.4454,3.4488,3.4516,3.4536,3.4557,3.4576,3.4591,3.4616,3.463,3.4651,3.4669,3.4689,3.4658,3.4557,3.4425,3.4323,3.4259,3.4237,3.4244,3.4247,3.4267,3.429,3.4305,3.4335,3.4372,3.4401,3.4422,3.4436,3.4445,3.4432,3.4434,3.444,3.4443,3.4452,3.4466,3.4494,3.4516,3.4552,3.4581,3.4602,3.4627,3.4641,3.4667,3.4682,3.4698,3.4716,3.4738,3.4752,3.4766,3.4764,3.4686,3.4553,3.4418,3.4344,3.4308,3.4292,3.4294,3.4308,3.4324,3.4351,3.4367,3.4389,3.4418,3.4444,3.447,3.4484,3.4483,3.4481,3.4477,3.4486,3.449,3.4503,3.4521,3.4545,3.4575,3.4602,3.4626,3.465,3.4673,3.4696,3.4712,3.4727,3.474,3.4757,3.478,3.48,3.4817,3.4818,3.4759,3.4646,3.4507,3.4398,3.435,3.4341,3.4346,3.4354,3.438,3.4398,3.4417,3.4439,3.4475,3.4507,3.4527,3.4535,3.4536,3.4535,3.453,3.4526,3.4541,3.4546,3.457,3.4598,3.4617,3.4643,3.4667,3.4698,3.4719,3.4734,3.4755,3.4775,3.4792,3.4809,3.4816,3.4839,3.4862,3.4875,3.487,3.4801,3.4676,3.4539,3.4448,3.4406,3.4395,3.4401,3.4421,3.4455,3.4482,3.4513,3.4543,3.4584,3.4609,3.4618,3.4615,3.4605,3.4603,3.4593,3.4602,3.4609,3.4625,3.4644,3.4667,3.4697,3.4719,3.4745,3.4765,3.4781,3.4792,3.4815,3.4838,3.485,3.4869,3.4892,3.4898,3.4878,3.4778,3.464,3.4515,3.4452,3.4422,3.4424,3.4438,3.4458,3.4488,3.4517,3.4547,3.4584,3.461,3.4631,3.4639,3.4648,3.4643,3.4631,3.4633,3.4636,3.4646,3.4664,3.4694,3.4719,3.4742,3.4765,3.4798,3.4811,3.4836,3.4848,3.4862,3.4883,3.4909,3.4925,3.494,3.4934,3.4857,3.4719,3.4584,3.4483,3.4438,3.4424,3.4432,3.445,3.4469,3.4487,3.4508,3.454,3.4575,3.4601,3.462,3.4626,3.4627,3.4628,3.4618,3.4627,3.4628,3.4638,3.4654,3.4683,3.4702,3.4727,3.476,3.4776,3.4795,3.4814,3.4835,3.4851,3.4876,3.4894,3.4908,3.4915,3.4884,3.4763,3.4626,3.4506,3.4451,3.4432,3.4429,3.4437,3.445,3.4472,3.4499,3.4528,3.4554,3.4582,3.4604,3.4613,3.462,3.4618,3.461,3.4607,3.4614,3.4627,,,4.0,,1.0
3.4292,3.4303,3.4314,3.4324,3.4338,3.4344,3.4354,3.4369,3.4376,3.4392,3.4394,3.4394,3.4388,3.4386,3.4386,3.4393,3.4403,3.4408,3.4434,3.4454,3.4469,3.4481,3.4502,3.4516,3.4527,3.454,3.4559,3.4574,3.4592,3.4613,3.4614,3.4575,3.4464,3.4377,3.433,3.4307,3.4293,3.4299,3.4311,3.4334,3.435,3.4359,3.437,3.4381,3.4392,3.4402,3.4407,3.4405,3.4399,3.4394,3.4401,3.44,3.4407,3.4413,3.4427,3.4448,3.4458,3.4478,3.4489,3.4506,3.4515,3.4529,3.4546,3.4564,3.4575,3.4588,3.4575,3.4506,3.4409,3.4356,3.4322,3.4311,3.4303,3.4322,3.4335,3.4349,3.4358,3.4367,3.4383,3.44,3.4407,3.441,3.4415,3.4409,3.4405,3.44,3.4403,3.4412,3.4417,3.4431,3.4449,3.4467,3.4476,3.45,3.4513,3.4526,3.4541,3.4556,3.4582,3.46,3.4615,3.4607,3.4539,3.4431,3.4367,3.4339,3.4311,3.4314,3.4322,3.4342,3.4354,3.4368,3.4366,3.4372,3.4386,3.4398,3.4411,3.4408,3.4412,3.4412,3.4406,3.4406,3.4407,3.4423,3.4426,3.4448,3.4456,3.4476,3.4494,3.4511,3.4526,3.4538,3.4556,3.4578,3.4593,3.4605,3.4603,3.4567,3.446,3.4396,3.4353,3.4335,3.4336,3.4339,3.4347,3.436,3.437,3.4383,3.4393,3.4402,3.4413,3.4418,3.4431,3.4437,3.4433,3.4433,3.443,3.4436,3.4445,3.4452,3.4465,3.4478,3.4496,3.451,3.4521,3.4531,3.4548,3.457,3.4585,3.4603,3.4621,3.4631,3.463,3.4565,3.4459,3.4402,3.4374,3.4358,3.4358,3.437,3.4382,3.4407,3.442,3.4423,3.4441,3.4454,3.4465,3.4466,3.4466,3.4468,3.4467,3.4458,3.4464,3.4466,3.4471,3.4484,3.4504,3.4517,3.4524,3.4547,3.4561,3.4573,3.4586,3.46,3.4623,3.4637,3.464,3.4611,3.4514,3.4442,3.4399,3.4377,3.4373,3.4381,3.4397,3.4415,3.4431,3.4443,3.4454,3.4459,3.4479,3.4488,3.4487,3.4481,3.4477,3.4483,3.4484,3.4489,3.4488,3.4508,3.4515,3.4528,3.4543,3.4557,3.4577,3.4595,3.4608,3.4627,3.4646,3.4663,3.4672,3.4641,3.4541,3.446,3.4424,3.4394,3.4388,3.4387,3.4405,3.4421,3.4426,3.444,3.4446,3.4452,3.4459,3.447,3.4488,3.4496,3.4492,3.4493,3.4486,3.4491,3.4494,3.4498,3.4513,3.4525,3.4536,3.455,3.4563,3.4583,3.4601,3.4618,3.4633,3.4653,3.4672,3.4671,3.4629,3.4523,3.4456,3.4422,3.4401,3.4394,3.4397,3.4415,3.4424,3.4438,3.4442,3.4446,3.4455,3.4471,3.4481,3.4497,3.45,3.4501,3.4494,3.4487,3.4498,3.4505,3.4512,3.4523,,,5.0,,1.0
3.4613,3.4632,3.4648,3.4669,3.4684,3.4696,3.4681,3.4607,3.4511,3.4455,3.4424,3.4402,3.4408,3.4422,3.4429,3.4448,3.4461,3.4465,3.4477,3.4489,3.4503,3.451,3.451,3.4516,3.4517,3.4511,3.4517,3.4516,3.4527,3.4532,3.4545,3.457,3.4585,3.4601,3.4619,3.463,3.4641,3.4657,3.4679,3.4695,3.4703,3.4719,3.4716,3.4646,3.4533,3.4468,3.4438,3.4425,3.4425,3.4435,3.4452,3.4472,3.448,3.4488,3.4504,3.4522,3.4526,3.4531,3.4539,3.4531,3.4524,3.452,3.4524,3.4527,3.4538,3.4554,3.4569,3.4584,3.46,3.4617,3.4633,3.4643,3.4652,3.4675,3.4692,3.4705,3.4722,3.473,3.4719,3.4622,3.4524,3.4475,3.4446,3.4428,3.4431,3.4446,3.4462,3.4478,3.4488,3.4496,3.4502,3.4512,3.453,3.4541,3.454,3.454,3.4531,3.453,3.4539,3.4545,3.455,3.4566,3.4581,3.4594,3.4607,3.4629,3.4642,3.4653,3.4665,3.4686,3.4706,3.472,3.4737,3.4748,3.4746,3.4675,3.4554,3.4488,3.4451,3.4437,3.4434,3.4442,3.4463,3.4474,3.4486,3.4494,3.45,3.4515,3.4523,3.4536,3.454,3.4539,3.4542,3.454,3.4542,3.454,3.4547,3.4563,3.4583,3.4595,3.4614,3.4627,3.4647,3.4657,3.4677,3.4694,3.4709,3.4731,3.4758,3.4772,3.477,3.4719,3.4593,3.451,3.4475,3.4453,3.4441,3.4451,3.4464,3.4473,3.4493,3.4507,3.4515,3.4528,3.4539,3.456,3.4564,3.4568,3.4568,3.4562,3.4556,3.4557,3.4572,3.4585,3.4602,3.4619,3.4635,3.4648,3.4668,3.4687,3.4709,3.4721,3.4741,3.4763,3.4785,3.4797,3.479,3.4702,3.4577,3.45,3.447,3.4458,3.4457,3.4468,3.4484,3.4511,3.4527,3.4539,3.4551,3.4572,3.4591,3.4597,3.4592,3.4587,3.4586,3.4574,3.4574,3.4588,3.46,3.4617,3.4629,3.4655,3.467,3.4684,3.4697,3.4717,3.4741,3.4762,3.4772,3.4798,3.481,3.4802,3.4724,3.4575,3.4508,3.4473,3.4459,3.4455,3.4475,3.4491,3.451,3.4528,3.454,3.4552,3.457,3.4581,3.4584,3.4596,3.4596,3.4583,3.4583,3.4581,3.4589,3.4609,3.4624,3.464,3.4658,3.4672,3.4698,3.4718,3.4742,3.4758,3.4772,3.4799,3.4818,3.4834,3.4831,3.4736,3.4584,3.4514,3.4477,3.4454,3.4453,3.4458,3.4479,3.4495,3.4508,3.4515,3.4528,3.4541,3.4559,3.457,3.4578,3.4581,3.4582,3.4574,3.4582,3.4583,3.4587,3.4599,3.4612,3.4636,3.4661,3.4681,3.4697,3.4714,3.4737,3.4759,3.4774,3.4795,3.4814,3.4833,3.482,3.4708,3.4567,3.4494,3.4461,3.4444,3.445,3.4455,,,6.0,,1.0
3.512,3.5133,3.5152,3.5171,3.5179,3.5173,3.511,3.4988,3.487,3.4783,3.4748,3.475,3.4758,3.4776,3.4803,3.4834,3.4867,3.4899,3.4926,3.4941,3.4947,3.4941,3.494,3.4939,3.4936,3.4939,3.4956,3.4967,3.4992,3.5018,3.5035,3.5051,3.5062,3.5077,3.5095,3.5111,3.5123,3.5133,3.5149,3.5169,3.5163,3.5114,3.5007,3.4882,3.4782,3.4734,3.4732,3.4738,3.4753,3.4772,3.4789,3.4822,3.4853,3.4879,3.4904,3.4914,3.4927,3.4928,3.4928,3.493,3.4928,3.4938,3.4949,3.4968,3.4999,3.5019,3.5041,3.5058,3.5073,3.509,3.5106,3.5127,3.5144,3.5155,3.5164,3.5177,3.5183,3.5112,3.4979,3.4845,3.4755,3.4715,3.4703,3.4711,3.4737,3.4754,3.4767,3.4786,3.4807,3.4844,3.4875,3.4896,3.4904,3.4906,3.49,3.4904,3.4907,3.4911,3.4921,3.4948,3.4971,3.4991,3.5018,3.5045,3.5062,3.5079,3.5094,3.5108,3.5122,3.5134,3.5149,3.5165,3.5181,3.5162,3.5076,3.495,3.4823,3.474,3.4709,3.4707,3.4721,3.4732,3.4763,3.4788,3.481,3.4838,3.4866,3.49,3.4913,3.4916,3.4916,3.4917,3.4916,3.4918,3.4927,3.494,3.4966,3.4989,3.5011,3.5034,3.5046,3.5069,3.5088,3.5098,3.5117,3.5129,3.5143,3.5164,3.5182,3.5188,3.5159,3.5047,3.4919,3.4798,3.4735,3.4718,3.4725,3.4749,3.4769,3.4804,3.4837,3.487,3.4898,3.4928,3.4947,3.4947,3.4942,3.4934,3.4934,3.4941,3.4952,3.4959,3.4979,3.5005,3.502,3.5049,3.5071,3.5082,3.5097,3.5112,3.5132,3.5148,3.5163,3.5175,3.5186,3.5191,3.5177,3.5056,3.4917,3.48,3.4738,3.4718,3.4718,3.4745,3.4763,3.4787,3.4817,3.485,3.4885,3.4911,3.4928,3.4951,3.4949,3.4946,3.4942,3.4936,3.495,3.4967,3.4984,3.5008,3.5032,3.505,3.5078,3.5095,3.5107,3.5124,3.5142,3.5161,3.5172,3.5184,3.5194,3.5204,3.5216,3.5167,3.502,3.4887,3.4777,3.4727,3.4716,3.4729,3.4746,3.4769,3.4792,3.4821,3.4845,3.4881,3.491,3.493,3.4942,3.4947,3.4945,3.4943,3.4939,3.4951,3.4973,3.4985,3.5005,3.5025,3.5058,3.5079,3.51,3.5111,3.5139,3.5148,3.5156,3.5175,3.5192,3.5203,3.5213,3.5219,3.5218,3.5149,3.5005,3.487,3.4778,3.4734,3.4729,3.4743,3.4763,3.4795,3.4818,3.4844,3.488,3.4916,3.4941,3.4961,3.4959,3.4965,3.4966,3.4963,3.4965,3.4978,3.4997,3.5013,3.5034,3.5053,3.5079,3.5106,3.5123,3.5136,3.515,3.5169,3.518,3.5191,3.5203,3.5215,3.5231,3.5234,3.5228,3.5145,,,7.0,,1.0
3.4477,3.4494,3.45,3.4503,3.4514,3.4534,3.455,3.4561,3.4557,3.4551,3.455,3.455,3.4549,3.4561,3.4578,3.4592,3.4608,3.4625,3.4649,3.4662,3.4681,3.4695,3.471,3.473,3.4748,3.4764,3.4781,3.4805,3.4799,3.4712,3.4571,3.4493,3.4457,3.4442,3.4433,3.4436,3.4447,3.4463,3.4475,3.448,3.4495,3.4512,3.4526,3.4537,3.4546,3.4546,3.4539,3.4528,3.453,3.4537,3.4542,3.4559,3.4575,3.4596,3.4615,3.463,3.4645,3.4664,3.4674,3.4686,3.4706,3.4727,3.4749,3.4763,3.4775,3.4767,3.47,3.4561,3.4482,3.4438,3.442,3.441,3.4424,3.4433,3.4454,3.4471,3.4476,3.4484,3.4503,3.4521,3.453,3.4534,3.4533,3.4522,3.452,3.4517,3.4527,3.4532,3.455,3.4569,3.4586,3.4607,3.4619,3.464,3.4662,3.4674,3.4685,3.47,3.4721,3.4748,3.4765,3.4775,3.4743,3.4626,3.45,3.4442,3.4409,3.4389,3.4392,3.4405,3.4418,3.443,3.4434,3.4439,3.4459,3.4474,3.4488,3.45,3.4498,3.4498,3.4495,3.4497,3.4493,3.4496,3.4505,3.4524,3.4539,3.4559,3.4574,3.4601,3.4616,3.4629,3.4644,3.4654,3.4679,3.4699,3.4719,3.4734,3.4741,3.4713,3.4601,3.4486,3.4423,3.439,3.4367,3.4372,3.4381,3.4391,3.4398,3.4411,3.4422,3.4429,3.4446,3.4463,3.4472,3.4474,3.4472,3.4472,3.4471,3.4472,3.4473,3.4481,3.4499,3.4512,3.4536,3.4558,3.4582,3.4597,3.4611,3.4632,3.4656,3.4672,3.469,3.4714,3.4728,3.4735,3.4716,3.4609,3.4478,3.4413,3.4376,3.4355,3.436,3.4374,3.4383,3.4396,3.4405,3.4413,3.4431,3.4452,3.4468,3.4477,3.4478,3.4479,3.4479,3.4475,3.4471,3.4473,3.4483,3.4494,3.4515,3.4541,3.4558,3.4577,3.4593,3.4616,3.4632,3.466,3.4675,3.4692,3.4712,3.4721,3.4725,3.4659,3.4513,3.4422,3.4383,3.4356,3.4349,3.4355,3.4371,3.4394,3.4411,3.4431,3.4448,3.4465,3.4478,3.4487,3.4486,3.4478,3.4465,3.446,3.4471,3.4477,3.449,3.4501,3.4522,3.454,3.4557,3.4568,3.4585,3.4605,3.4625,3.464,3.4665,3.4686,3.4703,3.4695,3.4603,3.4463,3.4399,3.4356,3.4335,3.4327,3.4336,3.4358,3.437,3.4378,3.4386,3.4395,3.4411,3.443,3.444,3.4442,3.4443,3.4441,3.4439,3.4435,3.4439,3.445,3.4472,3.4487,3.4501,3.4514,3.4543,3.4558,3.4574,3.4593,3.4612,3.4626,3.4653,3.4663,3.4662,3.4587,3.4452,3.4374,3.4336,3.4311,3.4299,3.4303,3.4322,3.4338,3.4341,3.4352,3.4352,3.4369,3.439,3.4396,3.4402,3.4411,,,8.0,,1.0
3.2874,3.2903,3.2927,3.2968,3.3013,3.3051,3.3081,3.3098,3.3099,3.3093,3.3083,3.3084,3.3094,3.3104,3.3128,3.315,3.3181,3.3208,3.3233,3.3258,3.3276,3.3295,3.3312,3.3341,3.3361,3.3373,3.3381,3.3317,3.3129,3.2955,3.2855,3.2821,3.2826,3.2838,3.287,3.2911,3.2946,3.2977,3.3014,3.3056,3.3097,3.3119,3.3123,3.3119,3.311,3.3109,3.3112,3.3119,3.313,3.3146,3.3174,3.3193,3.3221,3.3253,3.3267,3.3294,3.3309,3.3341,3.3359,3.338,3.3388,3.3356,3.3186,3.2992,3.2873,3.2835,3.2837,3.2859,3.2885,3.2918,3.2958,3.2999,3.3049,3.3094,3.3126,3.3149,3.3145,3.3145,3.3131,3.313,3.3127,3.3137,3.3152,3.3178,3.32,3.322,3.3254,3.3271,3.3301,3.3319,3.3346,3.3368,3.3384,3.3396,3.3393,3.3276,3.3078,3.292,3.2856,3.2834,3.2843,3.2873,3.2903,3.2925,3.2964,3.2997,3.3034,3.308,3.312,3.3138,3.3142,3.314,3.3133,3.3126,3.3126,3.313,3.315,3.3181,3.3204,3.323,3.3251,3.3273,3.3303,3.3319,3.3342,3.3368,3.3386,3.3397,3.3401,3.3321,3.3127,3.2953,3.2864,3.2842,3.2844,3.2855,3.2881,3.2909,3.2937,3.2968,3.3008,3.3054,3.3085,3.3117,3.3129,3.3124,3.3118,3.3118,3.3118,3.3115,3.3132,3.3155,3.3184,3.3206,3.3234,3.3259,3.3276,3.3298,3.3321,3.3337,3.3365,3.3382,3.3396,3.3392,3.329,3.3081,3.2921,3.285,3.2828,3.283,3.2847,3.288,3.2919,3.2955,3.299,3.303,3.3071,3.31,3.3116,3.3118,3.311,3.3096,3.3096,3.3089,3.3102,3.312,3.3138,3.316,3.3179,3.3208,3.3239,3.3257,3.3275,3.3298,3.3319,3.3344,3.336,3.3352,3.3262,3.3074,3.2905,3.2832,3.2805,3.2806,3.2831,3.2869,3.2896,3.2929,3.2971,3.3007,3.3044,3.307,3.3089,3.3088,3.3076,3.3062,3.3059,3.3065,3.3076,3.3092,3.3106,3.3132,3.3163,3.3182,3.3204,3.3233,3.3253,3.3275,3.3291,3.3323,3.3334,3.3326,3.3214,3.3018,3.2861,3.2806,3.2777,3.278,3.2795,3.2813,3.2843,3.2869,3.2903,3.2934,3.2968,3.3003,3.303,3.3034,3.3029,3.3016,3.301,3.3007,3.3021,3.3038,3.3057,3.3086,3.3113,3.3138,3.3156,3.3181,3.3206,3.3226,3.3248,3.3263,3.3289,3.3311,3.3298,3.3183,3.2991,3.2846,3.2778,3.2752,3.2752,3.2767,3.2789,3.2814,3.2849,3.2876,3.291,3.295,3.2982,3.3,3.3013,3.3006,3.2997,3.2986,3.299,3.3004,3.3017,3.3037,3.3064,3.3091,3.3118,3.3141,3.3158,3.318,3.3205,3.3222,3.3246,3.3268,,,9.0,,1.0
3.3119,3.3136,3.3155,3.3179,3.3202,3.3223,3.3234,3.3218,3.3094,3.2914,3.278,3.2721,3.2702,3.2708,3.272,3.2734,3.2756,3.2783,3.2807,3.2833,3.2875,3.291,3.2929,3.2935,3.2926,3.2909,3.2906,3.2906,3.2915,3.2933,3.2949,3.2971,3.3003,3.3032,3.3051,3.3072,3.3097,3.3122,3.3146,3.3171,3.3192,3.3211,3.3221,3.3165,3.3004,3.2821,3.2717,3.2682,3.2679,3.2684,3.2699,3.2724,3.2753,3.2773,3.2812,3.2852,3.2887,3.2914,3.2936,3.2935,3.2927,3.2916,3.2905,3.2914,3.2921,3.2935,3.2971,3.2999,3.3025,3.3048,3.3077,3.31,3.3114,3.3129,3.3148,3.3174,3.3198,3.322,3.3233,3.3201,3.3075,3.2876,3.2741,3.2692,3.2678,3.2683,3.2703,3.273,3.2768,3.28,3.2837,3.2874,3.2913,3.2934,3.2952,3.2956,3.2948,3.2935,3.2931,3.2933,3.294,3.2957,3.2987,3.3019,3.3047,3.307,3.309,3.3113,3.313,3.3145,3.3165,3.3182,3.3211,3.3223,3.3241,3.3205,3.3047,3.285,3.2733,3.2685,3.2675,3.269,3.2718,3.2749,3.2776,3.281,3.2852,3.2895,3.2931,3.2952,3.2963,3.2961,3.2961,3.2948,3.2943,3.2943,3.2957,3.2985,3.3018,3.3044,3.3068,3.3096,3.3122,3.3146,3.3165,3.319,3.3205,3.3224,3.324,3.3253,3.3267,3.3282,3.3226,3.3026,3.2838,3.2731,3.2694,3.2686,3.2701,3.2729,3.2756,3.279,3.2821,3.2847,3.2882,3.292,3.2955,3.2971,3.2968,3.2968,3.2968,3.2962,3.2962,3.2979,3.2997,3.3017,3.305,3.3084,3.3113,3.3134,3.3164,3.3184,3.3205,3.3226,3.323,3.3256,3.3274,3.3284,3.3295,3.3305,3.3235,3.3037,3.2838,3.2743,3.2716,3.2713,3.2726,3.2758,3.2788,3.2822,3.2853,3.2891,3.2937,3.2977,3.3004,3.3016,3.3014,3.3007,3.2999,3.2998,3.3012,3.302,3.3036,3.3064,3.3093,3.3118,3.3149,3.3184,3.3205,3.3222,3.324,3.3254,3.327,3.3281,3.3294,3.3309,3.3331,3.3333,3.3292,3.3112,3.2912,3.2783,3.2748,3.2748,3.2761,3.279,3.2832,3.2874,3.2916,3.2962,3.3004,3.3036,3.3059,3.3064,3.3066,3.3059,3.3046,3.3044,3.3044,3.3065,3.3081,3.3107,3.3139,3.3166,3.3189,3.3218,3.3236,3.3255,3.3268,3.3282,3.3296,3.3313,3.3332,3.3343,3.3347,3.3298,3.3114,3.2927,3.2813,3.2773,3.2775,3.279,3.2826,3.2865,3.2911,3.2954,3.3002,3.3048,3.3078,3.309,3.3096,3.3095,3.3087,3.3079,3.3074,3.308,3.3101,3.3129,3.3152,3.3183,3.3207,3.3227,3.3247,3.3269,3.3285,3.33,3.3326,3.3345,3.3357,3.3369,,,10.0,,1.0
3.3801,3.3813,3.3824,3.3842,3.387,3.389,3.392,3.3936,3.3951,3.3966,3.3978,3.3988,3.3995,3.401,3.4015,3.4018,3.4023,3.4035,3.4043,3.4025,3.3888,3.3686,3.3556,3.3505,3.3501,3.3523,3.3556,3.36,3.3651,3.3701,3.3744,3.3787,3.3819,3.3847,3.3855,3.385,3.3849,3.3846,3.3842,3.3847,3.3858,3.3877,3.3898,3.3911,3.3936,3.3954,3.3967,3.3976,3.3985,3.4003,3.4007,3.4018,3.4029,3.4031,3.404,3.4041,3.3991,3.3787,3.3613,3.3519,3.3492,3.3507,3.3533,3.3568,3.3609,3.3654,3.3695,3.3734,3.3778,3.3821,3.3842,3.3853,3.3851,3.3852,3.3849,3.3847,3.3856,3.3874,3.389,3.3907,3.3925,3.3946,3.3962,3.3979,3.3988,3.3997,3.4005,3.4012,3.4024,3.4037,3.4041,3.4047,3.4034,3.3898,3.3684,3.3558,3.3502,3.3496,3.3519,3.3552,3.3585,3.3622,3.3655,3.3699,3.3738,3.3773,3.3801,3.3831,3.3845,3.3851,3.3847,3.385,3.3855,3.3856,3.3881,3.3894,3.3917,3.3936,3.3951,3.3965,3.3981,3.3989,3.4006,3.4009,3.4022,3.4034,3.4042,3.4047,3.405,3.4018,3.3835,3.3656,3.3549,3.3509,3.3512,3.3539,3.3578,3.3618,3.3665,3.3708,3.3751,3.379,3.3821,3.3848,3.3871,3.387,3.3871,3.387,3.3869,3.3874,3.389,3.3906,3.3922,3.3936,3.3959,3.3979,3.3987,3.3993,3.4003,3.4024,3.4024,3.4035,3.4039,3.4051,3.4059,3.4053,3.3943,3.3737,3.3597,3.3528,3.3523,3.355,3.3588,3.3634,3.3681,3.3735,3.3783,3.3825,3.3853,3.3875,3.3893,3.3891,3.3885,3.3883,3.3886,3.3886,3.3901,3.3924,3.3941,3.3954,3.3976,3.3983,3.3999,3.4009,3.402,3.4027,3.4034,3.4044,3.4052,3.4055,3.4041,3.3897,3.3696,3.3572,3.352,3.3513,3.3542,3.3572,3.3612,3.3654,3.3701,3.3743,3.3779,3.382,3.3844,3.3865,3.387,3.3867,3.3869,3.3868,3.3881,3.3888,3.3907,3.3921,3.3939,3.3963,3.3979,3.3987,3.3999,3.4007,3.4021,3.4036,3.404,3.4054,3.4058,3.4062,3.4008,3.38,3.3633,3.3539,3.3508,3.3518,3.3542,3.3574,3.3614,3.3644,3.3682,3.3727,3.3766,3.3802,3.3834,3.3847,3.3852,3.3848,3.3848,3.3856,3.3859,3.3873,3.3887,3.3912,3.3936,3.3953,3.3971,3.3983,3.3996,3.3999,3.4013,3.4027,3.4035,3.4041,3.4047,3.4053,3.4047,3.3934,3.3727,3.359,3.3525,3.3514,3.3526,3.3557,3.3594,3.3638,3.3672,3.3712,3.3751,3.3795,3.3829,3.3845,3.3854,3.3849,3.3854,3.3857,3.3859,3.3868,3.3881,3.3898,3.392,3.3943,3.3955,3.3972,,,11.0,,1.0
3.4468,3.4462,3.4467,3.4474,3.4477,3.449,3.4508,3.4523,3.4545,3.4555,3.4579,3.4594,3.4613,3.4632,3.4645,3.4662,3.4677,3.465,3.454,3.4432,3.4385,3.4346,3.4325,3.4316,3.433,3.4336,3.4343,3.4345,3.4355,3.4368,3.438,3.4396,3.4406,3.4414,3.4408,3.441,3.4413,3.4407,3.4417,3.442,3.4426,3.4447,3.447,3.4484,3.45,3.4513,3.4534,3.4549,3.4564,3.4587,3.4607,3.4618,3.4625,3.4595,3.4482,3.4386,3.433,3.4289,3.4277,3.4281,3.4287,3.4299,3.4313,3.4319,3.4324,3.434,3.4358,3.4369,3.4378,3.438,3.4379,3.4372,3.4369,3.4373,3.4373,3.4388,3.4407,3.4417,3.4435,3.4447,3.4465,3.4479,3.4496,3.4514,3.4537,3.4558,3.4572,3.4579,3.4546,3.4442,3.4345,3.4287,3.4252,3.4238,3.424,3.4248,3.4268,3.4282,3.4289,3.4297,3.4307,3.4328,3.4341,3.4347,3.4344,3.4338,3.4339,3.4341,3.4344,3.4352,3.4364,3.4383,3.4396,3.4412,3.4429,3.4443,3.4461,3.4474,3.4497,3.4518,3.4535,3.4559,3.4569,3.4518,3.4393,3.4299,3.4252,3.4224,3.4213,3.4214,3.4217,3.4229,3.4241,3.4244,3.426,3.4267,3.4282,3.4298,3.4309,3.4319,3.4313,3.4313,3.4317,3.432,3.4326,3.4338,3.4355,3.4371,3.4389,3.4406,3.4422,3.4448,3.4461,3.4485,3.4515,3.4535,3.4556,3.4559,3.4524,3.4412,3.4297,3.4248,3.4204,3.419,3.4187,3.4192,3.4207,3.4217,3.4229,3.4243,3.4246,3.4271,3.4287,3.4302,3.4309,3.4306,3.4306,3.4307,3.4306,3.4315,3.4328,3.4345,3.4362,3.4381,3.4398,3.4426,3.4446,3.4466,3.4484,3.451,3.4539,3.4559,3.4574,3.4574,3.4508,3.4362,3.4272,3.4223,3.4195,3.4185,3.4186,3.4207,3.423,3.4248,3.4261,3.4273,3.4292,3.4308,3.4317,3.4327,3.4334,3.433,3.4324,3.4319,3.4332,3.4342,3.4352,3.4371,3.4389,3.4406,3.4426,3.4448,3.448,3.4498,3.4515,3.4538,3.4562,3.4572,3.4568,3.4489,3.434,3.4254,3.4209,3.4191,3.4186,3.4194,3.4219,3.4237,3.4251,3.4259,3.4271,3.4294,3.4317,3.4324,3.4326,3.4321,3.4325,3.4316,3.4317,3.4327,3.4337,3.436,3.4377,3.4403,3.4419,3.4445,3.4467,3.4487,3.451,3.4528,3.4558,3.4576,3.4574,3.4515,3.4369,3.4269,3.4218,3.4188,3.4176,3.4179,3.419,3.4204,3.4215,3.4219,3.4228,3.4251,3.4268,3.4287,3.4298,3.4306,3.4304,3.4299,3.4294,3.4294,3.4302,3.4325,3.4333,3.435,3.437,3.439,3.4412,3.444,3.4455,3.4483,3.4507,3.4531,3.4545,3.4536,3.4449,3.4305,,,12.0,,1.0
3.3883,3.3922,3.3955,3.3988,3.4019,3.4054,3.4085,3.41,3.4108,3.4111,3.4115,3.4114,3.412,3.4136,3.4146,3.4171,3.4187,3.4201,3.4215,3.4226,3.4231,3.424,3.4255,3.4265,3.4264,3.4276,3.4282,3.4288,3.4295,3.4286,3.4185,3.3982,3.3861,3.3818,3.3813,3.3827,3.3868,3.3909,3.3954,3.4003,3.4041,3.4084,3.4114,3.4135,3.4143,3.4145,3.4151,3.4146,3.4143,3.4148,3.4161,3.4182,3.4197,3.4206,3.4226,3.4233,3.4239,3.4254,3.4256,3.4267,3.4273,3.4281,3.4288,3.4291,3.4299,3.4277,3.4119,3.3945,3.3853,3.3816,3.382,3.384,3.3871,3.3912,3.3941,3.3984,3.4022,3.4067,3.4092,3.4115,3.4137,3.4148,3.4148,3.4141,3.4151,3.4164,3.4174,3.4185,3.4198,3.4214,3.423,3.4241,3.425,3.4267,3.4271,3.4273,3.428,3.4289,3.4299,3.4301,3.4306,3.4289,3.4135,3.3951,3.385,3.3816,3.382,3.3832,3.3865,3.3894,3.3921,3.395,3.3984,3.4026,3.4059,3.409,3.4116,3.4126,3.4134,3.4133,3.4135,3.4139,3.4146,3.4165,3.4191,3.4201,3.4222,3.4229,3.4243,3.4252,3.4266,3.4276,3.4285,3.4288,3.4293,3.4299,3.4312,3.4315,3.43,3.4152,3.3963,3.386,3.3825,3.3831,3.3848,3.3872,3.3905,3.3937,3.3965,3.4005,3.4044,3.4077,3.41,3.4118,3.4127,3.4136,3.4132,3.4133,3.4135,3.4148,3.4168,3.4181,3.4205,3.4216,3.4233,3.4242,3.4252,3.4266,3.4274,3.4281,3.4288,3.4297,3.4307,3.4313,3.4316,3.4302,3.4182,3.3981,3.3879,3.3833,3.3833,3.3847,3.3879,3.3915,3.3952,3.3994,3.4038,3.4074,3.4107,3.4119,3.4133,3.4136,3.413,3.4123,3.4123,3.4135,3.4148,3.4163,3.4184,3.4201,3.4215,3.4228,3.424,3.4255,3.4264,3.427,3.4276,3.4293,3.4295,3.4304,3.4303,3.4239,3.4034,3.389,3.3827,3.3808,3.381,3.383,3.386,3.3893,3.3923,3.3954,3.3988,3.4026,3.4056,3.4076,3.4084,3.4086,3.4075,3.407,3.4075,3.4085,3.4099,3.412,3.414,3.417,3.4187,3.4203,3.4216,3.4232,3.424,3.4247,3.4259,3.4275,3.4281,3.4289,3.4279,3.4174,3.3963,3.3834,3.3787,3.3782,3.3783,3.3796,3.3815,3.3836,3.3858,3.3877,3.3915,3.395,3.3977,3.3998,3.4012,3.4018,3.4012,3.4009,3.4012,3.4014,3.4038,3.405,3.4073,3.4095,3.412,3.4143,3.4162,3.4183,3.4191,3.4204,3.4212,3.4228,3.4241,3.425,3.4258,3.4249,3.4145,3.3934,3.3812,3.3764,3.3754,3.3754,3.3767,3.3782,3.3808,3.3831,3.385,3.3886,3.3925,3.3952,3.3973,3.3977,,,13.0,,1.0
3.5169,3.5171,3.5098,3.4948,3.4862,3.4809,3.4781,3.4769,3.4768,3.4779,3.479,3.48,3.4807,3.4811,3.4826,3.4855,3.4879,3.4884,3.4893,3.4887,3.4882,3.4879,3.4888,3.4897,3.4911,3.4925,3.4944,3.4966,3.4986,3.5001,3.5022,3.505,3.5067,3.5089,3.5102,3.5111,3.5081,3.496,3.485,3.4786,3.4748,3.4728,3.473,3.4738,3.4749,3.4754,3.4759,3.4769,3.4779,3.4801,3.4821,3.4837,3.4844,3.4848,3.484,3.4841,3.4844,3.4856,3.4865,3.488,3.4901,3.4919,3.494,3.4958,3.4979,3.4995,3.5016,3.5039,3.5057,3.5074,3.5092,3.5073,3.4982,3.485,3.4777,3.4728,3.4698,3.4703,3.4715,3.4734,3.4751,3.4754,3.4769,3.4791,3.481,3.4823,3.4848,3.4844,3.4842,3.4836,3.4837,3.4841,3.4848,3.4851,3.4878,3.4893,3.4911,3.4926,3.494,3.4963,3.498,3.4998,3.5019,3.5039,3.5063,3.5066,3.5028,3.4912,3.4801,3.4735,3.4697,3.4685,3.4695,3.4705,3.473,3.475,3.4761,3.4774,3.4794,3.4813,3.4828,3.484,3.4844,3.4839,3.4831,3.483,3.4831,3.4849,3.4861,3.4888,3.4913,3.4929,3.4959,3.4971,3.5002,3.5024,3.505,3.5072,3.5101,3.5106,3.5077,3.4951,3.48,3.4735,3.4688,3.4673,3.4676,3.4688,3.4709,3.4716,3.4731,3.4735,3.4752,3.4768,3.4797,3.4815,3.4821,3.4825,3.4825,3.4822,3.4817,3.4831,3.4836,3.4857,3.4877,3.4906,3.4932,3.4954,3.4978,3.5005,3.503,3.5063,3.508,3.5104,3.5111,3.5035,3.4863,3.4758,3.4704,3.4684,3.4676,3.468,3.4702,3.4722,3.4734,3.4738,3.4748,3.4775,3.4799,3.4829,3.4845,3.4847,3.4849,3.4842,3.4839,3.4848,3.4855,3.4872,3.4889,3.4919,3.4946,3.497,3.5002,3.5015,3.5043,3.5073,3.5102,3.5121,3.514,3.5154,3.5109,3.4946,3.4795,3.473,3.4703,3.4695,3.4702,3.4716,3.4741,3.476,3.4766,3.4789,3.4815,3.4839,3.4856,3.488,3.4887,3.4886,3.4883,3.488,3.4885,3.4892,3.4917,3.4934,3.4965,3.4987,3.5009,3.5028,3.5058,3.509,3.511,3.5133,3.5168,3.5188,3.52,3.5175,3.504,3.4862,3.4778,3.474,3.4724,3.4729,3.4751,3.4786,3.4816,3.4837,3.4853,3.4875,3.4906,3.4933,3.4934,3.4937,3.4934,3.4929,3.4927,3.4928,3.4942,3.4961,3.4977,3.5002,3.5029,3.5055,3.5082,3.5107,3.5129,3.516,3.5187,3.5208,3.5215,3.5179,3.5022,3.4851,3.4782,3.4759,3.4748,3.4767,3.4786,3.4822,3.485,3.4871,3.489,3.4919,3.4945,3.4963,3.4967,3.496,3.4949,3.4945,3.4949,3.496,,,14.0,,1.0
3.5097,3.5126,3.5148,3.5177,3.52,3.5229,3.5246,3.521,3.5051,3.4878,3.4803,3.4765,3.4753,3.4767,3.478,3.4811,3.4829,3.4838,3.4856,3.4873,3.4901,3.492,3.4941,3.4948,3.4947,3.4937,3.4933,3.4932,3.4946,3.4957,3.4985,3.5008,3.5034,3.5064,3.509,3.5116,3.5149,3.5176,3.5206,3.5218,3.5216,3.5115,3.4928,3.4822,3.4775,3.476,3.4759,3.4771,3.4793,3.4817,3.4838,3.4846,3.4865,3.4885,3.4915,3.4932,3.4946,3.4939,3.494,3.4944,3.4941,3.4941,3.4951,3.4965,3.4994,3.5021,3.5045,3.5069,3.5103,3.5126,3.5155,3.5181,3.5208,3.5214,3.5163,3.5007,3.4863,3.4804,3.4773,3.4762,3.4771,3.4788,3.4816,3.4836,3.4856,3.4871,3.4896,3.4921,3.494,3.4947,3.4951,3.4954,3.4952,3.4945,3.4946,3.4951,3.4966,3.4976,3.4996,3.5028,3.5055,3.5077,3.5104,3.5135,3.5169,3.5187,3.519,3.5115,3.4952,3.4842,3.4794,3.477,3.4767,3.4777,3.48,3.4831,3.4851,3.4868,3.4888,3.4911,3.4936,3.4944,3.4942,3.4937,3.493,3.4925,3.4923,3.4932,3.4951,3.4971,3.4988,3.5013,3.504,3.5063,3.5088,3.5118,3.515,3.5158,3.5114,3.4973,3.4847,3.4794,3.4757,3.475,3.4754,3.4766,3.4781,3.4798,3.4809,3.4826,3.4848,3.487,3.4885,3.4895,3.4906,3.4899,3.4897,3.4892,3.4896,3.49,3.4917,3.4938,3.496,3.4992,3.502,3.5046,3.507,3.5101,3.5124,3.5119,3.5054,3.4901,3.48,3.4744,3.4721,3.4716,3.4716,3.4733,3.4749,3.476,3.4767,3.4777,3.4797,3.4823,3.4847,3.4858,3.4867,3.4863,3.4853,3.4846,3.4856,3.4864,3.488,3.4891,3.4918,3.4949,3.4974,3.4997,3.5022,3.5056,3.5078,3.5087,3.505,3.4926,3.4806,3.4743,3.47,3.4687,3.4689,3.4698,3.4711,3.4728,3.4736,3.4743,3.4759,3.4789,3.481,3.4825,3.4827,3.4826,3.4828,3.4828,3.4823,3.4834,3.4849,3.4861,3.488,3.4902,3.4931,3.4958,3.4985,3.5014,3.5043,3.5062,3.5068,3.5028,3.4903,3.4779,3.4718,3.469,3.468,3.4683,3.4693,3.4705,3.4722,3.4729,3.474,3.4766,3.4789,3.4819,3.4829,3.4828,3.483,3.4826,3.4824,3.483,3.4835,3.4845,3.4858,3.4887,3.4907,3.4927,3.4951,3.4981,3.5009,3.5031,3.5052,3.5066,3.5069,3.5008,3.4861,3.4765,3.4711,3.4683,3.4676,3.4689,3.4717,3.4736,3.4749,3.4759,3.4776,3.4798,3.4821,3.4838,3.4844,3.4842,3.4833,3.4824,3.4832,3.4838,3.4855,3.487,3.4891,3.4909,3.4937,3.496,3.498,3.5005,3.5023,3.5056,,,15.0,,1.0
3.5093,3.5118,3.5128,3.5103,3.4982,3.4812,3.4732,3.469,3.4674,3.4668,3.468,3.4701,3.4724,3.4733,3.4739,3.4755,3.4774,3.4795,3.4818,3.4834,3.4834,3.4826,3.4825,3.483,3.4835,3.4846,3.4865,3.4891,3.492,3.4944,3.4967,3.4987,3.5009,3.5029,3.5052,3.5087,3.5098,3.5122,3.5106,3.5019,3.4838,3.4726,3.4681,3.4661,3.4657,3.4668,3.4687,3.4717,3.4734,3.4742,3.4759,3.4784,3.4813,3.4834,3.4843,3.4844,3.4838,3.4831,3.4841,3.4848,3.4857,3.4873,3.4899,3.4916,3.4944,3.4973,3.4989,3.5017,3.5034,3.5062,3.5092,3.5114,3.5129,3.5116,3.5011,3.4835,3.4722,3.4671,3.4658,3.4664,3.4681,3.4704,3.4729,3.4763,3.4776,3.48,3.4818,3.4847,3.486,3.486,3.485,3.4846,3.4841,3.4849,3.4862,3.4874,3.4896,3.4927,3.4946,3.4977,3.4999,3.5023,3.5042,3.5066,3.5096,3.511,3.5137,3.5134,3.5058,3.4878,3.4748,3.469,3.4659,3.4653,3.4671,3.4689,3.4715,3.4731,3.4749,3.4773,3.4797,3.4817,3.4838,3.4853,3.4851,3.4844,3.4844,3.4842,3.4845,3.486,3.4886,3.4902,3.4925,3.4957,3.4988,3.5009,3.503,3.5053,3.508,3.5112,3.5139,3.5147,3.5123,3.4987,3.4805,3.4715,3.4661,3.4645,3.4646,3.4658,3.4681,3.4702,3.4707,3.4717,3.474,3.4763,3.4785,3.4808,3.4816,3.4813,3.481,3.4808,3.4816,3.4826,3.4838,3.4855,3.4884,3.4909,3.4937,3.4956,3.4983,3.5012,3.5032,3.5054,3.5078,3.5097,3.5109,3.5088,3.4981,3.4806,3.4707,3.4662,3.4637,3.4642,3.4662,3.4685,3.4704,3.4714,3.4735,3.4755,3.4777,3.4807,3.4823,3.4836,3.4838,3.483,3.4826,3.4832,3.4834,3.4845,3.4872,3.489,3.4913,3.4944,3.497,3.4986,3.5016,3.504,3.506,3.5095,3.5114,3.5123,3.5093,3.4961,3.4796,3.4705,3.466,3.4655,3.4659,3.4679,3.47,3.4736,3.476,3.477,3.48,3.4828,3.4846,3.4853,3.485,3.4842,3.4844,3.4835,3.4845,3.4861,3.4875,3.4896,3.4918,3.4938,3.4966,3.4983,3.5014,3.5029,3.5057,3.5087,3.5107,3.5114,3.5091,3.4956,3.4797,3.471,3.4671,3.4652,3.4657,3.4675,3.4712,3.4737,3.4755,3.4765,3.4787,3.4818,3.483,3.484,3.4844,3.4843,3.4841,3.4831,3.4843,3.4855,3.4875,3.4893,3.4919,3.4938,3.4966,3.4993,3.5014,3.5035,3.5058,3.5091,3.5105,3.5127,3.5112,3.4991,3.4807,3.4707,3.4662,3.4651,3.4652,3.4662,3.468,3.4693,3.4714,3.4728,3.4744,3.4766,3.478,3.4811,3.4814,3.4819,3.4815,3.4807,,,16.0,,1.0
3.4906,3.4929,3.495,3.4966,3.4988,3.5015,3.5037,3.5065,3.5092,3.5098,3.5084,3.498,3.481,3.4706,3.4662,3.464,3.4634,3.4646,3.467,3.4691,3.4702,3.4707,3.4724,3.4751,3.4779,3.4803,3.4816,3.4817,3.4815,3.481,3.4815,3.4822,3.4832,3.4849,3.488,3.4908,3.4929,3.4958,3.4983,3.5,3.5022,3.5041,3.5065,3.5096,3.5113,3.5137,3.5131,3.5068,3.489,3.4745,3.468,3.465,3.4646,3.4654,3.4679,3.4709,3.4727,3.4734,3.4753,3.4773,3.4803,3.4825,3.4837,3.4846,3.4849,3.4835,3.4833,3.4838,3.4854,3.487,3.4889,3.491,3.4934,3.4964,3.4981,3.5005,3.5027,3.5046,3.5065,3.5089,3.5121,3.5133,3.5145,3.5088,3.4918,3.4767,3.4702,3.4664,3.4666,3.4677,3.4709,3.4735,3.4761,3.4788,3.4811,3.4827,3.4843,3.486,3.4865,3.4869,3.4857,3.4857,3.4852,3.4863,3.4873,3.4893,3.4912,3.4938,3.496,3.4981,3.5014,3.5031,3.5068,3.5087,3.5105,3.5131,3.5151,3.5143,3.5033,3.485,3.474,3.4691,3.4677,3.4687,3.4701,3.4724,3.4748,3.4767,3.4774,3.4797,3.4825,3.4854,3.4876,3.4882,3.4878,3.4873,3.4872,3.4872,3.4875,3.49,3.4924,3.4945,3.4968,3.4997,3.502,3.5049,3.5067,3.5087,3.5103,3.5129,3.516,3.5168,3.5174,3.5084,3.4893,3.4769,3.4718,3.4696,3.4692,3.4703,3.4725,3.4752,3.4766,3.4773,3.4787,3.4811,3.484,3.4872,3.4886,3.4892,3.4891,3.4883,3.4878,3.4881,3.4894,3.4924,3.4947,3.4966,3.4999,3.5016,3.5042,3.5073,3.5093,3.5116,3.5142,3.5159,3.5179,3.5198,3.5174,3.5031,3.4849,3.4756,3.4724,3.471,3.4713,3.473,3.4748,3.4782,3.4793,3.4802,3.4824,3.4857,3.4886,3.4904,3.4911,3.4912,3.4909,3.4907,3.4917,3.4927,3.4936,3.4955,3.4984,3.5014,3.5041,3.5068,3.5086,3.5108,3.5125,3.5149,3.5181,3.5195,3.5214,3.5233,3.5226,3.51,3.4902,3.4784,3.4752,3.4732,3.4738,3.4764,3.4794,3.4816,3.4831,3.4859,3.4877,3.4905,3.4927,3.4945,3.4959,3.496,3.4952,3.4935,3.4951,3.4958,3.4968,3.4987,3.5017,3.5047,3.5068,3.5091,3.5117,3.5135,3.5159,3.5188,3.5218,3.5234,3.5245,3.5246,3.5158,3.4968,3.4829,3.4775,3.4757,3.4764,3.4785,3.4817,3.4851,3.4877,3.4893,3.4918,3.495,3.4975,3.4983,3.4986,3.4978,3.4979,3.4969,3.4981,3.4985,3.5009,3.5031,3.505,3.5082,3.5099,3.5129,3.515,3.5172,3.5191,3.5218,3.5248,3.5269,3.5278,3.5242,3.5082,3.4894,3.4816,3.4777,3.4779,,,17.0,,1.0
3.4898,3.4914,3.4941,3.4971,3.4985,3.4991,3.499,3.4978,3.4979,3.498,3.4993,3.5008,3.5032,3.5066,3.509,3.5114,3.5131,3.5152,3.518,3.5207,3.5226,3.5242,3.527,3.529,3.5282,3.5189,3.4994,3.4856,3.4801,3.4778,3.4774,3.4784,3.4806,3.4831,3.4847,3.4851,3.487,3.4892,3.4917,3.4935,3.4964,3.496,3.4965,3.4964,3.4957,3.4959,3.4971,3.4996,3.5014,3.5037,3.5059,3.509,3.5115,3.5131,3.5152,3.5173,3.5184,3.521,3.5237,3.526,3.5269,3.5261,3.5165,3.4977,3.4845,3.48,3.4777,3.4775,3.4792,3.4811,3.4829,3.4844,3.4852,3.4863,3.4893,3.4928,3.4955,3.4964,3.4979,3.4972,3.4969,3.4962,3.496,3.4975,3.4993,3.5027,3.5054,3.5085,3.5103,3.512,3.5139,3.5169,3.5189,3.5206,3.5233,3.5254,3.5272,3.5273,3.5254,3.5124,3.4939,3.4831,3.4796,3.4794,3.4794,3.481,3.4832,3.4854,3.4875,3.4897,3.4918,3.4948,3.4974,3.4984,3.4996,3.4998,3.4988,3.498,3.4981,3.4987,3.5011,3.5037,3.506,3.5084,3.5103,3.5131,3.5157,3.5178,3.5193,3.5214,3.5238,3.5254,3.5271,3.5292,3.5259,3.5111,3.4925,3.4827,3.4794,3.4795,3.4799,3.4829,3.4851,3.4871,3.4887,3.4896,3.4926,3.4949,3.4974,3.5,3.5002,3.4992,3.4986,3.4983,3.4992,3.5007,3.5022,3.5043,3.5063,3.5091,3.5126,3.5142,3.5169,3.5188,3.5206,3.523,3.5251,3.5277,3.5292,3.5297,3.5252,3.5079,3.4903,3.4828,3.4797,3.4784,3.4791,3.4813,3.4833,3.4843,3.4853,3.4857,3.4873,3.4909,3.4939,3.4959,3.4972,3.4977,3.4968,3.4968,3.4967,3.4984,3.499,3.5012,3.5045,3.5075,3.5088,3.5123,3.5151,3.5165,3.5189,3.5206,3.5223,3.5252,3.5274,3.5286,3.5284,3.5236,3.5058,3.4895,3.4815,3.4795,3.4786,3.4787,3.4803,3.4823,3.4844,3.4847,3.4853,3.4878,3.491,3.4943,3.4968,3.4976,3.4978,3.4971,3.4971,3.498,3.4985,3.4997,3.5016,3.504,3.5077,3.5101,3.5118,3.5143,3.5154,3.5173,3.519,3.5206,3.5227,3.5255,3.527,3.5277,3.5232,3.5081,3.4921,3.483,3.4796,3.4793,3.4793,3.4812,3.4841,3.4862,3.4868,3.4881,3.4897,3.494,3.4969,3.4992,3.5003,3.5002,3.4993,3.4993,3.4987,3.4993,3.5016,3.5036,3.5062,3.5082,3.5106,3.5129,3.5158,3.5181,3.52,3.5225,3.5247,3.5271,3.5289,3.5298,3.529,3.5208,3.503,3.4884,3.482,3.4799,3.4808,3.4826,3.4858,3.4896,3.4924,3.4941,3.4962,3.4993,3.5024,3.5025,3.5039,3.5032,3.5023,3.5021,,,18.0,,1.0
3.5035,3.5046,3.5056,3.5068,3.5099,3.5123,3.5147,3.5168,3.5196,3.5219,3.524,3.5276,3.53,3.5322,3.5335,3.5346,3.5298,3.5138,3.4948,3.486,3.4826,3.4812,3.4826,3.4846,3.4869,3.489,3.4901,3.4918,3.4943,3.497,3.5014,3.5031,3.5044,3.5052,3.5048,3.5042,3.5046,3.5051,3.5061,3.5081,3.5107,3.5138,3.5174,3.5203,3.5226,3.5252,3.5281,3.5301,3.5323,3.5346,3.5363,3.5357,3.5271,3.5073,3.4921,3.4849,3.4833,3.4843,3.4859,3.4885,3.4907,3.4941,3.4959,3.498,3.5007,3.5032,3.5068,3.5086,3.5093,3.5086,3.5092,3.5087,3.5096,3.5103,3.5126,3.5155,3.5181,3.5203,3.5231,3.5259,3.5277,3.5302,3.5327,3.5349,3.5365,3.5376,3.5381,3.5366,3.5219,3.5011,3.4896,3.4851,3.485,3.4867,3.4894,3.4926,3.4957,3.4984,3.502,3.5053,3.5084,3.5107,3.5115,3.5123,3.512,3.5104,3.5109,3.5111,3.5125,3.5137,3.5163,3.5192,3.5216,3.5242,3.5262,3.5292,3.5309,3.5332,3.5362,3.5378,3.5387,3.5351,3.5181,3.4993,3.4899,3.4859,3.4863,3.4869,3.4898,3.4925,3.4966,3.4997,3.5017,3.5045,3.5074,3.51,3.5105,3.511,3.5111,3.5103,3.51,3.5105,3.5113,3.5136,3.5167,3.519,3.5215,3.5244,3.5267,3.5297,3.5317,3.534,3.5367,3.5384,3.5366,3.5231,3.5035,3.4906,3.4856,3.4837,3.4845,3.4868,3.4893,3.4908,3.4936,3.4948,3.4967,3.5001,3.5035,3.5053,3.5061,3.5077,3.507,3.5063,3.506,3.5062,3.508,3.5094,3.5122,3.5143,3.5161,3.5181,3.5205,3.5237,3.5266,3.5283,3.5308,3.5318,3.5275,3.5123,3.4955,3.4869,3.4828,3.4814,3.4828,3.4845,3.4862,3.4877,3.489,3.491,3.4935,3.4956,3.4997,3.5012,3.5018,3.5021,3.502,3.5017,3.5016,3.502,3.5031,3.5055,3.5081,3.5101,3.5123,3.5147,3.5186,3.5207,3.5235,3.5265,3.5285,3.5283,3.5203,3.5027,3.4885,3.4823,3.4799,3.4804,3.4814,3.4833,3.4854,3.4874,3.4895,3.4923,3.4949,3.4974,3.4995,3.4995,3.499,3.499,3.4986,3.4986,3.4991,3.4998,3.5018,3.5043,3.5069,3.5091,3.5115,3.5135,3.5165,3.5188,3.5218,3.5239,3.5235,3.5142,3.4972,3.4855,3.4797,3.477,3.4764,3.4778,3.4805,3.4826,3.484,3.4856,3.4877,3.4912,3.4932,3.4954,3.4963,3.4956,3.4943,3.4933,3.4941,3.4949,3.4969,3.4985,3.5005,3.5028,3.5049,3.5085,3.511,3.5135,3.5158,3.518,3.5188,3.5121,3.4953,3.4822,3.4759,3.4733,3.4731,3.473,3.4746,3.4754,3.4776,3.4782,3.4789,3.4819,,,19.0,,1.0
3.4726,3.4756,3.4791,3.4818,3.4827,3.4834,3.483,3.4821,3.4818,3.4827,3.4844,3.4865,3.4884,3.491,3.4934,3.4972,3.4995,3.5029,3.5063,3.5078,3.5099,3.5061,3.4937,3.4779,3.4692,3.4648,3.463,3.4629,3.4646,3.4664,3.4691,3.4711,3.4728,3.4752,3.4779,3.4807,3.4824,3.4831,3.4824,3.4821,3.4824,3.4824,3.4831,3.4843,3.4863,3.4892,3.4924,3.4949,3.4976,3.5,3.5037,3.5057,3.5077,3.5084,3.5014,3.4845,3.4711,3.4659,3.4632,3.4627,3.4643,3.4666,3.4689,3.4706,3.4729,3.4751,3.4783,3.4811,3.4835,3.4853,3.4851,3.4844,3.4842,3.4848,3.4853,3.486,3.4873,3.4898,3.4927,3.4948,3.4978,3.5013,3.5041,3.5068,3.5095,3.5102,3.5067,3.4908,3.4738,3.4664,3.4636,3.4624,3.4631,3.4644,3.4674,3.4684,3.4698,3.4719,3.4753,3.4786,3.4813,3.484,3.4852,3.4851,3.4844,3.4838,3.4848,3.4858,3.4868,3.4887,3.4917,3.4945,3.4978,3.502,3.5053,3.5081,3.5109,3.514,3.5149,3.5097,3.492,3.4744,3.4671,3.4645,3.4634,3.465,3.4667,3.4693,3.4708,3.4726,3.4758,3.4789,3.4823,3.4854,3.4884,3.4902,3.4898,3.4898,3.4896,3.4899,3.4909,3.4925,3.4943,3.4969,3.5006,3.5033,3.5072,3.5094,3.5128,3.515,3.5177,3.5196,3.5156,3.5008,3.4811,3.4708,3.4672,3.4661,3.4684,3.4709,3.4738,3.4768,3.4792,3.4823,3.4863,3.4905,3.4929,3.4942,3.496,3.4962,3.4957,3.4956,3.4955,3.4969,3.4991,3.5015,3.5035,3.5067,3.5099,3.5122,3.5152,3.5182,3.521,3.5227,3.5229,3.5156,3.4975,3.4794,3.4729,3.4712,3.4713,3.4736,3.4766,3.4804,3.4851,3.4885,3.4929,3.4971,3.5001,3.5011,3.5008,3.5007,3.5,3.4998,3.501,3.501,3.5037,3.5049,3.5086,3.5115,3.5144,3.517,3.5203,3.5225,3.5242,3.5256,3.5263,3.5178,3.497,3.4808,3.4745,3.4731,3.4741,3.4763,3.4799,3.4839,3.4882,3.4913,3.4949,3.4982,3.5021,3.5051,3.5057,3.5058,3.505,3.5043,3.5043,3.5054,3.5078,3.5097,3.512,3.5156,3.5179,3.5208,3.5239,3.5268,3.5284,3.5294,3.5287,3.5181,3.4972,3.4823,3.4767,3.4753,3.4756,3.4787,3.4827,3.4863,3.4905,3.494,3.4972,3.502,3.5052,3.5069,3.5071,3.5076,3.5079,3.5074,3.5075,3.5088,3.51,3.5117,3.5145,3.5178,3.5218,3.5246,3.5274,3.5289,3.5308,3.5323,3.5286,3.5126,3.492,3.4808,3.4785,3.4783,3.4801,3.4837,3.4885,3.4931,3.4977,3.5018,3.5057,3.5081,3.5107,3.5103,3.5091,3.5089,3.5087,3.5084,,,20.0,,1.0
3.5314,3.5215,3.5013,3.4862,3.48,3.4787,3.4796,3.483,3.4871,3.4915,3.4955,3.4995,3.5043,3.508,3.5107,3.511,3.5106,3.5106,3.5089,3.509,3.5098,3.5102,3.5131,3.5158,3.519,3.5209,3.5241,3.5274,3.5294,3.5306,3.5298,3.5165,3.4952,3.4829,3.4795,3.4782,3.4788,3.4817,3.4851,3.4892,3.4935,3.4959,3.4999,3.5025,3.5049,3.5068,3.5071,3.5071,3.5074,3.5064,3.5072,3.509,3.5104,3.5127,3.5165,3.5196,3.5229,3.5263,3.528,3.5293,3.5252,3.5071,3.4893,3.481,3.479,3.4788,3.4809,3.4842,3.488,3.4918,3.4966,3.4997,3.505,3.5073,3.5101,3.511,3.5104,3.5094,3.5087,3.5079,3.5079,3.5099,3.5126,3.5152,3.5184,3.5214,3.5246,3.5283,3.5299,3.5287,3.5162,3.4958,3.4836,3.4787,3.4779,3.4789,3.4821,3.487,3.4918,3.4958,3.4997,3.5038,3.5065,3.5092,3.509,3.509,3.5078,3.507,3.5062,3.507,3.5089,3.5111,3.514,3.5171,3.5209,3.5247,3.5269,3.5294,3.5299,3.525,3.5053,3.4875,3.4807,3.4779,3.4779,3.48,3.4835,3.4872,3.491,3.4952,3.4988,3.5018,3.5053,3.5077,3.5087,3.5091,3.5079,3.5076,3.5073,3.5077,3.5088,3.5113,3.5149,3.5188,3.5218,3.5245,3.5277,3.5299,3.5313,3.5295,3.5137,3.4939,3.4813,3.4788,3.4776,3.4786,3.4809,3.4844,3.4884,3.4921,3.4948,3.4989,3.5028,3.5051,3.5064,3.5074,3.5082,3.5072,3.5068,3.5065,3.5078,3.5089,3.5121,3.5149,3.518,3.5218,3.5258,3.5282,3.5301,3.5311,3.5286,3.5133,3.4924,3.4818,3.4779,3.4771,3.4787,3.4813,3.486,3.4902,3.4933,3.4978,3.5013,3.5054,3.5082,3.5092,3.5098,3.5095,3.5091,3.5084,3.5087,3.5103,3.5125,3.5148,3.5172,3.5205,3.5235,3.5259,3.5296,3.5317,3.5334,3.5331,3.5249,3.5035,3.4867,3.4798,3.4782,3.4796,3.482,3.4865,3.4907,3.4953,3.5011,3.5063,3.5102,3.5126,3.5145,3.5144,3.5127,3.511,3.5102,3.5111,3.5124,3.5131,3.5162,3.5189,3.522,3.5252,3.5285,3.5309,3.5322,3.5337,3.5348,3.5288,3.5085,3.4897,3.4817,3.48,3.4804,3.4836,3.4876,3.493,3.4981,3.5026,3.507,3.5115,3.5132,3.5127,3.5128,3.5108,3.509,3.5083,3.5089,3.5109,3.5127,3.5161,3.5186,3.5211,3.5236,3.5269,3.5294,3.5312,3.5333,3.5303,3.5129,3.4918,3.4825,3.4794,3.4789,3.4797,3.4832,3.4873,3.4907,3.4935,3.4963,3.5005,3.5046,3.5067,3.5075,3.5072,3.506,3.5055,3.5052,3.5057,3.5074,3.5094,3.512,3.515,3.519,3.5213,,,21.0,,1.0
3.4639,3.4669,3.4704,3.4735,3.4749,3.4781,3.4812,3.4829,3.4832,3.4823,3.4813,3.4804,3.4805,3.4813,3.4822,3.485,3.4873,3.4894,3.4914,3.494,3.4959,3.4977,3.5008,3.504,3.506,3.5082,3.5079,3.5013,3.4831,3.4683,3.4628,3.4591,3.4591,3.4604,3.4618,3.4653,3.4673,3.4696,3.4715,3.4737,3.4762,3.4791,3.4804,3.4809,3.4807,3.4803,3.4802,3.4802,3.4822,3.4843,3.4863,3.4887,3.4912,3.4935,3.497,3.4991,3.5022,3.5052,3.5074,3.5095,3.5094,3.5044,3.4864,3.4693,3.4622,3.4585,3.4571,3.4584,3.4609,3.4639,3.4657,3.4662,3.4688,3.4708,3.4737,3.4764,3.4792,3.4798,3.4796,3.4794,3.4792,3.48,3.4802,3.4817,3.4841,3.4869,3.4894,3.4922,3.4941,3.4967,3.4999,3.5022,3.505,3.5076,3.5094,3.5086,3.4987,3.4799,3.4664,3.4602,3.4572,3.4576,3.4589,3.4613,3.4646,3.4666,3.468,3.47,3.473,3.4766,3.4786,3.4807,3.4813,3.481,3.4796,3.4794,3.4806,3.4827,3.4841,3.4865,3.489,3.4919,3.4944,3.4963,3.4991,3.5009,3.5038,3.5069,3.5085,3.511,3.511,3.5069,3.4894,3.4708,3.4621,3.4584,3.4581,3.4596,3.4624,3.4654,3.4686,3.472,3.4743,3.4768,3.4793,3.4812,3.4817,3.4823,3.4826,3.4817,3.481,3.4817,3.4839,3.4855,3.4877,3.4903,3.4926,3.4946,3.4971,3.4997,3.5028,3.5055,3.5078,3.5097,3.5107,3.5088,3.4965,3.4766,3.4644,3.46,3.4588,3.46,3.4622,3.4649,3.4689,3.4711,3.473,3.4759,3.4787,3.4814,3.4836,3.4836,3.4829,3.4829,3.4827,3.4829,3.4837,3.4859,3.4889,3.4908,3.4932,3.4962,3.4991,3.5016,3.5034,3.5064,3.5085,3.5103,3.512,3.5106,3.4972,3.4768,3.4648,3.4591,3.4584,3.4593,3.4608,3.4633,3.4653,3.468,3.4691,3.4715,3.4749,3.4783,3.4802,3.4813,3.4813,3.4818,3.4815,3.4813,3.4827,3.484,3.4856,3.4878,3.4901,3.4937,3.4961,3.4989,3.5009,3.5031,3.5066,3.5087,3.5104,3.5108,3.5047,3.4869,3.4694,3.4614,3.4576,3.4576,3.4594,3.4609,3.4645,3.467,3.4686,3.4703,3.473,3.4762,3.4793,3.4809,3.4818,3.4818,3.4808,3.481,3.4816,3.483,3.4851,3.4871,3.4898,3.4916,3.4944,3.4974,3.5003,3.5026,3.5053,3.5069,3.5097,3.512,3.5109,3.5013,3.4814,3.4657,3.4602,3.4584,3.4586,3.4594,3.4631,3.4663,3.4689,3.4709,3.4741,3.4771,3.48,3.4811,3.4827,3.4834,3.4826,3.4818,3.4816,3.4821,3.4845,3.4857,3.4884,3.4907,3.4932,3.4954,3.4985,3.5018,3.5038,3.5058,,,22.0,,1.0
3.4947,3.497,3.4988,3.4989,3.4892,3.4726,3.461,3.4554,3.4524,3.4522,3.4543,3.4569,3.4589,3.4603,3.4612,3.4631,3.4655,3.4679,3.4709,3.472,3.4719,3.4711,3.4704,3.472,3.4723,3.4744,3.4757,3.4784,3.4808,3.4834,3.4864,3.4894,3.4912,3.4931,3.4962,3.4982,3.5009,3.5013,3.497,3.4812,3.4644,3.4567,3.4522,3.4529,3.4534,3.4559,3.4593,3.4614,3.4631,3.4649,3.4678,3.4701,3.4717,3.4736,3.4742,3.4735,3.4725,3.471,3.4728,3.4734,3.4751,3.4775,3.4799,3.4819,3.4847,3.487,3.4901,3.4924,3.4944,3.4961,3.4985,3.4983,3.4913,3.4745,3.462,3.4563,3.4534,3.453,3.4548,3.4576,3.4615,3.4644,3.4664,3.4682,3.4701,3.4727,3.4746,3.4746,3.4738,3.4737,3.4741,3.4741,3.4746,3.4757,3.4783,3.4805,3.4827,3.4859,3.4883,3.49,3.4918,3.4948,3.4973,3.499,3.4984,3.4907,3.4741,3.4618,3.4553,3.452,3.4518,3.4532,3.4547,3.4579,3.4595,3.4607,3.4612,3.4636,3.4669,3.4691,3.4698,3.4711,3.4719,3.4715,3.4702,3.4709,3.4729,3.4746,3.4768,3.479,3.4816,3.4852,3.4874,3.4902,3.4929,3.4954,3.4982,3.5008,3.5008,3.4928,3.4736,3.4601,3.4543,3.4515,3.451,3.4519,3.4539,3.4568,3.4584,3.4601,3.4616,3.4649,3.4671,3.4692,3.4714,3.4729,3.4731,3.4726,3.472,3.4726,3.4738,3.4753,3.478,3.4808,3.4835,3.4857,3.4884,3.4911,3.4946,3.4977,3.5004,3.5019,3.5036,3.4998,3.4846,3.4667,3.458,3.4543,3.4528,3.4534,3.4565,3.4605,3.4631,3.4657,3.4679,3.4704,3.4729,3.4754,3.4778,3.479,3.4788,3.4787,3.4779,3.478,3.4793,3.4807,3.4836,3.4858,3.4894,3.4923,3.4945,3.4978,3.5005,3.5027,3.505,3.5082,3.5097,3.5093,3.5006,3.4815,3.4661,3.4592,3.4576,3.4584,3.4604,3.4636,3.4671,3.471,3.474,3.4778,3.4811,3.4845,3.4866,3.4868,3.4868,3.4865,3.4857,3.4864,3.4872,3.4888,3.4908,3.4932,3.4954,3.4986,3.5011,3.5041,3.506,3.5084,3.5113,3.5138,3.5159,3.5177,3.516,3.5063,3.4838,3.4694,3.4642,3.4627,3.4636,3.4667,3.4711,3.4768,3.481,3.485,3.4885,3.492,3.4944,3.4947,3.4942,3.4937,3.4933,3.4926,3.4926,3.4937,3.4966,3.4988,3.501,3.5043,3.5072,3.5096,3.5118,3.5142,3.5167,3.5189,3.5207,3.5217,3.5211,3.5116,3.4902,3.4734,3.4683,3.467,3.4679,3.4717,3.4767,3.4822,3.4872,3.4917,3.4955,3.4986,3.5015,3.5023,3.5019,3.5009,3.4996,3.4997,3.4996,3.5008,3.503,3.5046,,,23.0,,1.0
3.4853,3.4887,3.4922,3.4944,3.4952,3.4943,3.494,3.4942,3.4941,3.4943,3.4964,3.4988,3.5005,3.5037,3.5063,3.5096,3.5121,3.5147,3.5167,3.5195,3.522,3.5232,3.5202,3.5056,3.4849,3.4742,3.4693,3.4688,3.469,3.472,3.4759,3.4794,3.4824,3.4855,3.4894,3.4924,3.4943,3.4952,3.4961,3.4955,3.495,3.4956,3.4961,3.4975,3.4988,3.5002,3.5035,3.5058,3.5081,3.5112,3.5131,3.5166,3.5188,3.521,3.5225,3.5243,3.5224,3.5097,3.4893,3.4759,3.471,3.4703,3.4709,3.4734,3.4774,3.4824,3.4859,3.4902,3.4941,3.4976,3.4989,3.4991,3.4988,3.4979,3.4965,3.4961,3.4966,3.4973,3.5001,3.502,3.5052,3.5077,3.5104,3.5124,3.5153,3.5179,3.5202,3.5227,3.5245,3.524,3.5124,3.4913,3.4767,3.4712,3.4696,3.4706,3.473,3.477,3.4808,3.4842,3.4866,3.4902,3.4933,3.4958,3.4968,3.4975,3.4978,3.4968,3.496,3.4968,3.4975,3.4989,3.5019,3.5047,3.5072,3.5098,3.5125,3.5158,3.518,3.5201,3.5228,3.5251,3.5255,3.5187,3.4982,3.4799,3.472,3.4698,3.4694,3.4702,3.4735,3.4765,3.4798,3.4813,3.4847,3.4872,3.4902,3.4921,3.494,3.4954,3.4949,3.4945,3.4944,3.4946,3.4956,3.4973,3.5006,3.5025,3.5051,3.5082,3.5106,3.5131,3.5158,3.5181,3.5203,3.5234,3.5232,3.5172,3.4986,3.4793,3.4717,3.4685,3.4681,3.4689,3.4714,3.475,3.4775,3.4792,3.4811,3.4843,3.4882,3.4913,3.493,3.4933,3.493,3.4923,3.4932,3.4935,3.494,3.4955,3.498,3.5015,3.5039,3.5062,3.5087,3.5111,3.5137,3.5155,3.5181,3.5213,3.5229,3.5237,3.519,3.502,3.4822,3.4722,3.4688,3.4678,3.4684,3.4703,3.4733,3.4767,3.4793,3.4813,3.4841,3.4876,3.49,3.4914,3.4926,3.4934,3.4925,3.4917,3.4923,3.493,3.4952,3.4972,3.5002,3.5035,3.5061,3.5086,3.5109,3.5132,3.5152,3.5171,3.5188,3.5217,3.5228,3.5237,3.5183,3.4997,3.4803,3.4714,3.4689,3.4681,3.4694,3.4736,3.4775,3.4806,3.4829,3.4852,3.489,3.4917,3.4932,3.4948,3.4948,3.4937,3.4936,3.4944,3.4953,3.4958,3.4987,3.5011,3.5037,3.5065,3.5087,3.5105,3.5135,3.5157,3.5176,3.5202,3.5221,3.5241,3.5248,3.5253,3.5182,3.4969,3.479,3.471,3.4684,3.4677,3.4704,3.4738,3.4775,3.4814,3.4844,3.4869,3.4896,3.4927,3.4956,3.4953,3.4959,3.4951,3.4946,3.4948,3.4961,3.4976,3.5005,3.5027,3.5063,3.5096,3.5118,3.5142,3.5161,3.5175,3.5193,3.5221,3.5239,3.5257,3.527,3.5272,,,24.0,,1.0
3.4706,3.4724,3.475,3.4786,3.482,3.4855,3.4882,3.4905,3.4935,3.4957,3.4977,3.4991,3.4986,3.4979,3.4988,3.4993,3.4997,3.502,3.5042,3.5075,3.5098,3.513,3.5148,3.5181,3.5195,3.5217,3.5238,3.5251,3.527,3.5283,3.5302,3.5292,3.5168,3.495,3.4785,3.4734,3.4724,3.4732,3.4752,3.4798,3.484,3.487,3.489,3.4924,3.4961,3.4993,3.5012,3.502,3.5017,3.5019,3.5026,3.5024,3.5042,3.5053,3.5072,3.5101,3.5129,3.5155,3.5176,3.5206,3.5219,3.5245,3.5261,3.5277,3.5299,3.5317,3.5327,3.5326,3.5262,3.5074,3.4874,3.478,3.4752,3.4749,3.4767,3.4807,3.4855,3.4898,3.4933,3.4964,3.4994,3.5019,3.504,3.5048,3.5055,3.5051,3.5045,3.5051,3.5056,3.5064,3.5078,3.511,3.5127,3.5162,3.5189,3.5209,3.5227,3.5244,3.5275,3.5289,3.5304,3.532,3.5323,3.5264,3.5068,3.4872,3.4789,3.4757,3.4756,3.4786,3.4825,3.4862,3.4898,3.493,3.4965,3.4991,3.5027,3.505,3.5054,3.5048,3.5039,3.5045,3.5043,3.505,3.5059,3.5079,3.511,3.5139,3.516,3.5181,3.5208,3.5232,3.5252,3.5268,3.5289,3.5309,3.5322,3.5284,3.5126,3.4912,3.4795,3.4753,3.4745,3.4764,3.4785,3.4811,3.4854,3.4879,3.4898,3.4921,3.4948,3.4983,3.501,3.5011,3.5018,3.501,3.5003,3.5004,3.5013,3.5038,3.5061,3.5081,3.5104,3.5123,3.5154,3.5174,3.5204,3.5234,3.5255,3.5274,3.5284,3.5277,3.5167,3.496,3.4807,3.4747,3.4723,3.473,3.4749,3.4774,3.4801,3.482,3.4835,3.4863,3.4885,3.4922,3.4954,3.4965,3.4966,3.496,3.4954,3.4957,3.496,3.4965,3.4981,3.4995,3.5017,3.5038,3.5065,3.5097,3.5119,3.5144,3.5164,3.52,3.5219,3.5235,3.523,3.5133,3.4945,3.4799,3.4736,3.4709,3.47,3.4717,3.4747,3.4771,3.479,3.4799,3.4819,3.485,3.4875,3.4911,3.4927,3.4923,3.493,3.4923,3.4923,3.4931,3.4944,3.4961,3.4981,3.5015,3.5033,3.5056,3.5085,3.511,3.513,3.5148,3.5174,3.5194,3.5209,3.5205,3.5133,3.496,3.4795,3.4721,3.4688,3.4686,3.4697,3.4728,3.4769,3.4794,3.4815,3.4836,3.4873,3.4901,3.4917,3.4921,3.4915,3.4913,3.4915,3.4903,3.4918,3.4931,3.4949,3.4972,3.4997,3.5017,3.5032,3.5061,3.5083,3.5105,3.5124,3.5151,3.5171,3.5178,3.5144,3.5003,3.4824,3.4714,3.4681,3.467,3.4673,3.4696,3.473,3.4754,3.4784,3.4802,3.4827,3.4854,3.4876,3.4889,3.4887,3.4881,3.4882,3.4874,3.4888,3.4902,3.4922,3.4942,,,25.0,,1.0
3.5087,3.5111,3.5138,3.5154,3.517,3.5148,3.5001,3.4811,3.4692,3.4648,3.4642,3.4638,3.466,3.4687,3.4707,3.4723,3.4739,3.4769,3.4796,3.4821,3.4841,3.4855,3.4855,3.485,3.4851,3.4855,3.4855,3.4878,3.4896,3.4927,3.495,3.4974,3.4999,3.5025,3.5055,3.5078,3.5101,3.5122,3.514,3.5157,3.5111,3.4952,3.4755,3.4663,3.4619,3.4606,3.4619,3.4625,3.4655,3.4684,3.4703,3.4714,3.473,3.4773,3.4808,3.4826,3.4837,3.4844,3.4844,3.4839,3.4837,3.4849,3.486,3.4885,3.4905,3.4945,3.4969,3.4992,3.5022,3.5041,3.5067,3.509,3.511,3.513,3.5149,3.5162,3.5136,3.4982,3.477,3.4661,3.4616,3.4604,3.4603,3.4635,3.466,3.4684,3.4701,3.4717,3.4743,3.4781,3.4807,3.4826,3.4844,3.4852,3.4854,3.4843,3.4846,3.4859,3.4868,3.4897,3.4917,3.4946,3.4978,3.4999,3.5024,3.5052,3.5073,3.51,3.5121,3.514,3.5155,3.5174,3.515,3.5021,3.4803,3.4675,3.4629,3.4613,3.4621,3.4644,3.4672,3.4711,3.4738,3.4757,3.4785,3.4823,3.4851,3.4864,3.4882,3.4882,3.4877,3.4863,3.4874,3.4876,3.4895,3.4918,3.4949,3.4972,3.4999,3.5017,3.5044,3.5071,3.5097,3.5117,3.5138,3.5156,3.5172,3.5174,3.5086,3.4879,3.4713,3.4645,3.4621,3.4631,3.4655,3.4679,3.4725,3.4769,3.4793,3.4832,3.4865,3.4888,3.4898,3.4897,3.49,3.4896,3.4888,3.4886,3.4891,3.491,3.4927,3.4953,3.4986,3.5002,3.5033,3.5049,3.5077,3.5108,3.5133,3.5154,3.5174,3.5162,3.5052,3.4841,3.4699,3.4647,3.4622,3.4625,3.4641,3.4676,3.4707,3.4734,3.4762,3.4786,3.4819,3.4851,3.487,3.4876,3.4872,3.4874,3.4861,3.4864,3.4866,3.4883,3.491,3.4932,3.4957,3.4978,3.5012,3.5035,3.5058,3.5081,3.5109,3.5135,3.5142,3.5097,3.4935,3.4748,3.4653,3.4611,3.4599,3.4604,3.4619,3.465,3.4676,3.4696,3.4706,3.4721,3.4763,3.4783,3.4798,3.4815,3.4825,3.4815,3.4811,3.4814,3.4824,3.4836,3.4854,3.487,3.4902,3.4929,3.4955,3.4975,3.5004,3.5028,3.5054,3.5079,3.5102,3.5083,3.496,3.4772,3.4649,3.4592,3.4573,3.4569,3.4582,3.4603,3.4634,3.4648,3.4664,3.4681,3.4706,3.4733,3.4765,3.4773,3.4775,3.4784,3.4782,3.4772,3.4779,3.4792,3.4817,3.4837,3.4861,3.4886,3.4913,3.4936,3.4955,3.4983,3.5003,3.5031,3.5048,3.5075,3.5079,3.5026,3.4853,3.4673,3.4591,3.4557,3.454,3.4558,3.4577,3.4596,3.4626,3.464,3.465,3.467,3.4707,3.4739,,,26.0,,1.0
3.49,3.4927,3.4951,3.4971,3.499,3.4992,3.4954,3.4802,3.4633,3.4553,3.4527,3.4505,3.4523,3.4543,3.4566,3.4589,3.461,3.463,3.4646,3.4675,3.4698,3.4709,3.4708,3.4702,3.4696,3.4701,3.4709,3.4722,3.4743,3.477,3.479,3.4815,3.4844,3.4864,3.4887,3.4913,3.4934,3.4955,3.4977,3.5,3.4993,3.489,3.4708,3.4582,3.4516,3.4497,3.4495,3.4504,3.4522,3.4548,3.4565,3.4581,3.4594,3.4614,3.464,3.4663,3.4686,3.4693,3.4686,3.4687,3.4684,3.4696,3.471,3.4727,3.4747,3.4773,3.4793,3.4819,3.4848,3.4873,3.4899,3.4918,3.4941,3.4971,3.4994,3.4985,3.4895,3.471,3.4567,3.4497,3.4474,3.4463,3.4481,3.4509,3.453,3.4547,3.4553,3.4571,3.4602,3.4636,3.4663,3.4676,3.4686,3.4682,3.4687,3.4684,3.4685,3.4696,3.4712,3.4733,3.4751,3.4781,3.4815,3.4831,3.4852,3.4875,3.4901,3.4931,3.4949,3.4978,3.4985,3.4931,3.4761,3.4591,3.4518,3.4483,3.4472,3.4483,3.4502,3.4534,3.4559,3.4583,3.4605,3.4632,3.4656,3.4676,3.4689,3.4698,3.4691,3.4683,3.4681,3.469,3.4705,3.4724,3.4733,3.4768,3.4792,3.4812,3.4836,3.4863,3.4885,3.4911,3.4928,3.4952,3.4972,3.4956,3.4855,3.4674,3.4541,3.4497,3.4468,3.4481,3.4505,3.453,3.4549,3.4585,3.4602,3.4623,3.4647,3.4668,3.4687,3.4698,3.4702,3.4696,3.4687,3.4691,3.4702,3.4712,3.4739,3.4759,3.4784,3.4803,3.4827,3.4858,3.4877,3.4903,3.4931,3.4964,3.4985,3.4985,3.4904,3.4727,3.457,3.4511,3.4477,3.448,3.4498,3.4515,3.4539,3.4559,3.4569,3.4581,3.4604,3.4633,3.4661,3.4676,3.4691,3.4688,3.4681,3.4677,3.4689,3.4701,3.4717,3.4732,3.4767,3.4788,3.4808,3.4834,3.4865,3.489,3.4913,3.4939,3.4963,3.4983,3.4979,3.4891,3.4702,3.4574,3.4518,3.4486,3.4488,3.4499,3.4528,3.4551,3.4567,3.4582,3.4596,3.4615,3.4642,3.4659,3.4669,3.467,3.4674,3.4678,3.4675,3.4679,3.4689,3.4706,3.474,3.4765,3.4789,3.4809,3.4834,3.486,3.4881,3.4908,3.4932,3.4962,3.4982,3.4995,3.5003,3.4916,3.4723,3.4583,3.4531,3.4503,3.4504,3.4524,3.4556,3.4582,3.4603,3.462,3.4639,3.4678,3.4702,3.4722,3.4728,3.4731,3.4722,3.4713,3.4714,3.4716,3.4724,3.4745,3.4763,3.4794,3.481,3.4842,3.4869,3.4888,3.4918,3.4939,3.4962,3.4979,3.5006,3.4979,3.4859,3.468,3.4579,3.4542,3.4537,3.4542,3.4567,3.4601,3.4631,3.4666,3.4694,3.4716,3.4745,3.4753,,,27.0,,1.0
3.4739,3.4761,3.4775,3.4794,3.4811,3.4835,3.4853,3.487,3.4892,3.4918,3.4938,3.4959,3.4981,3.5004,3.4987,3.4858,3.468,3.4599,3.4551,3.454,3.4549,3.4569,3.4591,3.4627,3.4648,3.4672,3.4689,3.4707,3.473,3.4746,3.4748,3.4738,3.4739,3.4738,3.4737,3.4744,3.4768,3.479,3.4801,3.4823,3.4847,3.4874,3.4902,3.4923,3.4944,3.4964,3.4994,3.4986,3.4907,3.4729,3.4614,3.4562,3.4534,3.4529,3.454,3.4554,3.458,3.4602,3.4613,3.4624,3.4642,3.468,3.4695,3.4708,3.471,3.4699,3.4701,3.4705,3.4701,3.4706,3.4731,3.4741,3.4764,3.4793,3.481,3.483,3.4856,3.4888,3.4914,3.4937,3.4953,3.4943,3.4861,3.4691,3.4589,3.4539,3.4505,3.451,3.4517,3.4538,3.4555,3.4572,3.4581,3.4592,3.4616,3.4637,3.466,3.4673,3.4672,3.467,3.4671,3.4675,3.4679,3.4683,3.4697,3.4718,3.4745,3.4761,3.4789,3.4806,3.4826,3.4845,3.4876,3.4905,3.4927,3.4932,3.4909,3.4803,3.4639,3.455,3.4509,3.4495,3.4496,3.4509,3.4524,3.4547,3.4571,3.4571,3.4599,3.4619,3.4637,3.4657,3.4673,3.4669,3.4668,3.4653,3.4658,3.4672,3.4681,3.4697,3.4719,3.4741,3.4767,3.479,3.481,3.4826,3.4844,3.487,3.4891,3.4916,3.4935,3.4927,3.4846,3.4678,3.4573,3.4524,3.4502,3.4496,3.451,3.4532,3.4565,3.459,3.4601,3.4613,3.4641,3.4652,3.4665,3.4677,3.4675,3.4668,3.4663,3.466,3.4672,3.4682,3.47,3.4729,3.4749,3.4773,3.4789,3.4809,3.4829,3.4849,3.4866,3.4888,3.4908,3.4929,3.4897,3.4777,3.4623,3.4546,3.45,3.4492,3.4504,3.4524,3.4546,3.457,3.4583,3.4596,3.4623,3.4645,3.466,3.4676,3.4675,3.4669,3.4667,3.4672,3.4674,3.4682,3.4695,3.4725,3.4738,3.4758,3.4788,3.4811,3.4829,3.4848,3.4874,3.4897,3.4918,3.4934,3.4936,3.4869,3.4703,3.4581,3.4519,3.4484,3.4485,3.4499,3.4518,3.4532,3.4548,3.4555,3.4571,3.4591,3.4613,3.4638,3.4652,3.4661,3.4663,3.4655,3.4653,3.4652,3.4663,3.4683,3.4702,3.4725,3.4745,3.4761,3.479,3.4803,3.483,3.4859,3.4881,3.4901,3.4915,3.4926,3.4867,3.4696,3.4571,3.4505,3.4484,3.4479,3.4482,3.4499,3.4511,3.4527,3.4542,3.4554,3.4571,3.46,3.4619,3.4633,3.4638,3.4644,3.4638,3.4638,3.4642,3.4653,3.4667,3.4686,3.4706,3.473,3.4751,3.4769,3.4792,3.4808,3.4834,3.4862,3.4878,3.49,3.4921,3.4901,3.4793,3.4624,3.4526,3.4488,3.4463,3.4471,3.448,3.4507,,,28.0,,1.0
3.4807,3.483,3.4854,3.488,3.4898,3.4924,3.4955,3.4978,3.4996,3.5004,3.4963,3.4807,3.462,3.4544,3.4494,3.4495,3.4504,3.4525,3.4543,3.4575,3.4595,3.4609,3.4631,3.4656,3.4686,3.4713,3.4715,3.4725,3.4718,3.4709,3.4721,3.473,3.4742,3.4759,3.4795,3.4829,3.4854,3.4886,3.491,3.4929,3.4949,3.4975,3.5003,3.5025,3.5041,3.5041,3.4995,3.4826,3.4631,3.4544,3.4517,3.4519,3.4536,3.4568,3.4601,3.4646,3.467,3.4691,3.4729,3.4757,3.4773,3.4778,3.4772,3.4779,3.4766,3.4766,3.4779,3.479,3.4804,3.4828,3.4852,3.4884,3.4907,3.4929,3.4953,3.4985,3.5009,3.5033,3.505,3.5072,3.5047,3.4918,3.4708,3.4589,3.4535,3.4527,3.4531,3.4562,3.4593,3.4639,3.4664,3.469,3.4714,3.4744,3.4777,3.4796,3.4798,3.479,3.4785,3.478,3.4777,3.479,3.4815,3.4837,3.4861,3.4884,3.491,3.4936,3.4964,3.4986,3.5014,3.5046,3.5067,3.5086,3.5058,3.4924,3.4707,3.459,3.4543,3.4527,3.4539,3.4562,3.4589,3.4615,3.4638,3.4648,3.468,3.47,3.4733,3.4751,3.4767,3.4779,3.4772,3.4768,3.4764,3.4767,3.4789,3.4814,3.4836,3.4859,3.4883,3.4914,3.4948,3.4972,3.5,3.5021,3.505,3.5065,3.5058,3.4966,3.4768,3.4607,3.4557,3.4523,3.4529,3.4544,3.4571,3.4596,3.4615,3.4643,3.4654,3.469,3.4717,3.4737,3.4749,3.4764,3.4765,3.4756,3.4754,3.4766,3.4778,3.4793,3.4813,3.484,3.4865,3.4887,3.4924,3.4947,3.4968,3.4988,3.5017,3.5043,3.5062,3.5071,3.5015,3.4834,3.4639,3.4561,3.4533,3.4522,3.4536,3.4559,3.4598,3.4627,3.4647,3.4658,3.4693,3.4717,3.4748,3.4764,3.4768,3.4768,3.4761,3.4755,3.4756,3.4768,3.478,3.4805,3.4831,3.4851,3.4883,3.4909,3.4929,3.4963,3.4985,3.5007,3.5025,3.5044,3.5055,3.4986,3.4814,3.4641,3.4567,3.4531,3.4533,3.4557,3.4586,3.462,3.4653,3.4684,3.4702,3.4728,3.4759,3.4767,3.4766,3.4759,3.4748,3.4744,3.4754,3.4762,3.4776,3.4797,3.4813,3.4845,3.4874,3.4894,3.4911,3.493,3.4958,3.4978,3.5006,3.5032,3.5041,3.5001,3.4846,3.467,3.4586,3.4546,3.4532,3.4541,3.4575,3.4614,3.4645,3.4664,3.469,3.4721,3.4749,3.4764,3.477,3.4767,3.4772,3.4759,3.4757,3.4765,3.4768,3.4783,3.4808,3.484,3.4863,3.4884,3.4906,3.4927,3.4958,3.4988,3.5011,3.5036,3.5031,3.4951,3.4759,3.4619,3.4565,3.4535,3.4533,3.4551,3.4573,3.4594,3.4619,3.4638,3.4646,3.4671,,,29.0,,1.0
3.4315,3.4337,3.4371,3.4389,3.4404,3.4426,3.4447,3.4478,3.4492,3.4496,3.4497,3.4497,3.4496,3.4491,3.4506,3.4518,3.4534,3.455,3.4577,3.4607,3.463,3.465,3.4676,3.4697,3.4715,3.4735,3.4757,3.4767,3.471,3.4557,3.4412,3.4343,3.4309,3.4303,3.4312,3.4331,3.4347,3.4372,3.4383,3.4396,3.4417,3.4439,3.4463,3.4493,3.4492,3.449,3.4484,3.4491,3.4491,3.4505,3.4515,3.4547,3.4569,3.4592,3.4623,3.4651,3.467,3.4685,3.4722,3.4744,3.4764,3.4778,3.4769,3.4685,3.4507,3.439,3.4333,3.4314,3.4306,3.4318,3.4351,3.4376,3.4394,3.4405,3.4428,3.445,3.4478,3.4501,3.4512,3.4526,3.4512,3.4514,3.4512,3.4522,3.4532,3.4547,3.4568,3.4599,3.4626,3.4643,3.4674,3.4699,3.4726,3.475,3.4775,3.4795,3.48,3.4758,3.4611,3.4446,3.4371,3.4343,3.4334,3.4341,3.4372,3.4406,3.4437,3.4461,3.4486,3.4508,3.4529,3.4559,3.4564,3.4564,3.4557,3.4549,3.4546,3.4556,3.4575,3.4592,3.4613,3.4629,3.4659,3.4684,3.4713,3.4735,3.4764,3.4791,3.4814,3.4825,3.481,3.4719,3.4537,3.4415,3.437,3.4348,3.4356,3.4384,3.4421,3.445,3.4473,3.449,3.4517,3.4553,3.4575,3.4589,3.4594,3.4589,3.4578,3.4575,3.458,3.4586,3.4603,3.4623,3.4643,3.4675,3.4693,3.4723,3.4756,3.4781,3.4804,3.4825,3.4845,3.4854,3.479,3.4622,3.4466,3.4401,3.4367,3.4357,3.4378,3.4398,3.4431,3.4451,3.4463,3.4488,3.4505,3.4539,3.4566,3.4589,3.4588,3.459,3.4584,3.458,3.4582,3.4597,3.4612,3.4634,3.4652,3.468,3.4708,3.473,3.4757,3.4783,3.4804,3.4826,3.4853,3.4866,3.4803,3.4644,3.4484,3.4412,3.4373,3.4362,3.4368,3.44,3.4431,3.4448,3.4469,3.4478,3.45,3.453,3.4555,3.4576,3.4578,3.4578,3.4577,3.4569,3.4579,3.459,3.4605,3.4631,3.4645,3.4677,3.4703,3.4726,3.4746,3.4771,3.4795,3.4816,3.4839,3.4866,3.486,3.4799,3.4637,3.4479,3.4404,3.4381,3.4371,3.438,3.4411,3.444,3.4466,3.4481,3.4504,3.4531,3.4562,3.4581,3.4593,3.4589,3.459,3.4589,3.4582,3.4585,3.4596,3.4617,3.4636,3.4662,3.4694,3.4709,3.4738,3.4755,3.4778,3.4803,3.4835,3.4858,3.4873,3.4871,3.4803,3.4638,3.4488,3.4418,3.4387,3.4388,3.4409,3.4438,3.4473,3.45,3.4521,3.4549,3.458,3.4609,3.4623,3.4624,3.4621,3.4608,3.4608,3.4608,3.4615,3.4623,3.4642,3.4669,3.469,3.4715,3.4748,3.4764,3.4788,3.4805,3.4835,3.4858,,,30.0,,1.0
3.4607,3.4627,3.4648,3.4685,3.4706,3.4729,3.4751,3.4777,3.4808,3.4809,3.4752,3.4604,3.4466,3.4393,3.4358,3.435,3.4357,3.4377,3.4391,3.4419,3.4435,3.445,3.447,3.4498,3.4533,3.4542,3.4542,3.4537,3.4532,3.4539,3.4544,3.455,3.4564,3.4584,3.46,3.4628,3.4658,3.4682,3.4706,3.4721,3.475,3.4769,3.4775,3.4762,3.4646,3.4484,3.4396,3.4344,3.4341,3.4343,3.437,3.4398,3.4419,3.4439,3.4457,3.4486,3.451,3.4534,3.4538,3.4545,3.454,3.4525,3.4532,3.453,3.4539,3.4549,3.4576,3.4598,3.4623,3.4643,3.4674,3.4696,3.4728,3.475,3.4765,3.4757,3.468,3.4525,3.4401,3.4348,3.4326,3.4323,3.4344,3.4364,3.4385,3.4401,3.4425,3.4443,3.4471,3.4496,3.4519,3.4533,3.4531,3.4522,3.4509,3.4509,3.4512,3.452,3.4546,3.4571,3.4594,3.4616,3.4637,3.4662,3.4695,3.4714,3.4737,3.4748,3.4717,3.4574,3.442,3.4344,3.4305,3.4295,3.43,3.4314,3.4334,3.4359,3.4375,3.4381,3.4402,3.4425,3.4452,3.4471,3.4479,3.4476,3.4461,3.4457,3.4458,3.446,3.447,3.4499,3.4523,3.4539,3.4556,3.4584,3.4607,3.4624,3.4642,3.4649,3.4639,3.4556,3.4413,3.4331,3.4276,3.4252,3.4253,3.4263,3.428,3.4297,3.4316,3.4322,3.4336,3.4357,3.4378,3.4401,3.4412,3.4416,3.4408,3.4411,3.4406,3.441,3.4425,3.4446,3.4464,3.4486,3.4522,3.454,3.4564,3.458,3.4605,3.4638,3.4656,3.4668,3.4622,3.4488,3.4345,3.4267,3.4225,3.4214,3.422,3.4232,3.4252,3.4265,3.4275,3.4279,3.4304,3.4328,3.4353,3.4369,3.4384,3.4382,3.438,3.4369,3.4376,3.4386,3.4391,3.4416,3.4438,3.4461,3.4483,3.4503,3.4529,3.4558,3.4583,3.4605,3.4629,3.4635,3.4589,3.4447,3.4318,3.4251,3.421,3.4199,3.4203,3.4232,3.4249,3.4257,3.4264,3.4277,3.4302,3.4326,3.4359,3.4381,3.4388,3.4383,3.4371,3.4376,3.4384,3.4386,3.4402,3.4417,3.4442,3.4464,3.4491,3.452,3.4543,3.4566,3.4584,3.4609,3.4634,3.4655,3.4627,3.4506,3.4348,3.427,3.4236,3.4225,3.4231,3.4249,3.427,3.4298,3.4311,3.4331,3.4355,3.4386,3.4407,3.442,3.4423,3.4423,3.4416,3.4417,3.442,3.4426,3.444,3.4459,3.4483,3.4506,3.4526,3.4558,3.4588,3.4613,3.4638,3.4656,3.4685,3.4696,3.4652,3.4506,3.4364,3.4303,3.4278,3.4271,3.4277,3.4312,3.434,3.4369,3.4385,3.4404,3.4431,3.4461,3.4478,3.4488,3.448,3.4475,3.4466,3.4476,3.4478,3.4489,3.4508,3.4536,,,31.0,,1.0
3.4465,3.4486,3.4511,3.4534,3.4549,3.456,3.4555,3.455,3.4548,3.456,3.4568,3.4584,3.46,3.463,3.4661,3.4679,3.4714,3.4738,3.4765,3.4788,3.4814,3.4843,3.4862,3.4834,3.4696,3.4521,3.4441,3.4402,3.4389,3.4406,3.4426,3.4453,3.4471,3.4493,3.4515,3.4539,3.4558,3.4571,3.4578,3.4583,3.459,3.4587,3.4583,3.4587,3.4595,3.4618,3.4638,3.4659,3.468,3.4712,3.4733,3.4755,3.4776,3.48,3.4825,3.484,3.4836,3.4746,3.459,3.4491,3.4444,3.4435,3.444,3.4454,3.4481,3.4504,3.4533,3.4551,3.4576,3.4601,3.4616,3.462,3.4626,3.4626,3.4628,3.4625,3.4634,3.4643,3.4662,3.4682,3.4708,3.4741,3.4763,3.4786,3.4815,3.4839,3.4864,3.4887,3.4905,3.4904,3.4798,3.4625,3.4525,3.4486,3.4468,3.447,3.449,3.4522,3.4553,3.4576,3.46,3.4624,3.4653,3.4677,3.4685,3.4701,3.4696,3.469,3.4688,3.4696,3.4701,3.4712,3.473,3.4753,3.4776,3.4797,3.483,3.4861,3.4889,3.4915,3.4935,3.4953,3.4905,3.4746,3.4596,3.4539,3.4501,3.4503,3.4515,3.4542,3.4579,3.4613,3.464,3.4669,3.4698,3.473,3.4739,3.4738,3.4732,3.4731,3.4726,3.472,3.4724,3.473,3.4753,3.4779,3.4797,3.4823,3.4854,3.4886,3.4916,3.4941,3.4958,3.4953,3.4874,3.4704,3.4597,3.4541,3.4517,3.4529,3.4557,3.4585,3.4617,3.4646,3.4672,3.4714,3.4738,3.4757,3.476,3.475,3.4742,3.4731,3.4728,3.4739,3.4746,3.4753,3.4784,3.4801,3.4832,3.4866,3.4886,3.4914,3.4937,3.4959,3.4958,3.4859,3.4694,3.4597,3.4548,3.4528,3.4527,3.4548,3.4575,3.4605,3.4636,3.4655,3.468,3.4697,3.4727,3.4738,3.4741,3.4735,3.4723,3.4716,3.4723,3.4733,3.4745,3.4757,3.4785,3.4805,3.4837,3.4869,3.4896,3.4917,3.4952,3.494,3.4848,3.4686,3.4588,3.4543,3.4519,3.452,3.4533,3.4549,3.4577,3.46,3.4614,3.4628,3.4648,3.468,3.4695,3.4699,3.4694,3.4695,3.4694,3.4695,3.4696,3.471,3.4724,3.4738,3.4771,3.48,3.4827,3.4852,3.4879,3.4912,3.4927,3.4911,3.4799,3.4646,3.4564,3.4515,3.4489,3.4504,3.4515,3.4534,3.4557,3.458,3.4601,3.4616,3.4636,3.467,3.4686,3.4686,3.4684,3.4674,3.4669,3.4672,3.4673,3.4686,3.4707,3.4732,3.4753,3.4778,3.4801,3.4836,3.4855,3.4884,3.4902,3.4904,3.485,3.4701,3.4582,3.4522,3.4491,3.4479,3.4497,3.4523,3.4557,3.4581,3.4603,3.4623,3.4654,3.4668,3.4677,3.4679,3.4683,3.4671,3.4671,3.467,,,32.0,,1.0
3.4817,3.4844,3.4862,3.4885,3.49,3.4911,3.4852,3.4695,3.456,3.4495,3.4461,3.4467,3.4475,3.4509,3.4539,3.457,3.4591,3.4612,3.4641,3.4669,3.4675,3.4682,3.4671,3.4657,3.4649,3.4653,3.4669,3.4678,3.4701,3.4727,3.4749,3.4776,3.4797,3.4826,3.4845,3.4872,3.4896,3.4919,3.4934,3.4885,3.4721,3.4572,3.4503,3.4464,3.4457,3.4463,3.4493,3.4517,3.4547,3.4562,3.4587,3.4606,3.4637,3.4648,3.4664,3.4671,3.4663,3.4659,3.4652,3.4662,3.467,3.469,3.4714,3.4735,3.4758,3.4778,3.4809,3.4833,3.4863,3.4897,3.4921,3.4924,3.4854,3.4682,3.4544,3.4479,3.4444,3.4436,3.4444,3.4473,3.4489,3.4513,3.4526,3.4542,3.4563,3.4593,3.4616,3.4634,3.464,3.4643,3.4642,3.4637,3.4643,3.4649,3.4669,3.4685,3.4708,3.4732,3.4764,3.4791,3.4813,3.484,3.4871,3.4893,3.4918,3.4908,3.4798,3.461,3.4496,3.4451,3.4428,3.4429,3.445,3.4475,3.45,3.4524,3.4546,3.4572,3.4594,3.4617,3.463,3.4639,3.4638,3.4624,3.4619,3.4621,3.463,3.4644,3.4661,3.4687,3.4715,3.4731,3.4765,3.4789,3.4824,3.4853,3.4873,3.4893,3.4896,3.481,3.4624,3.4498,3.444,3.4421,3.4423,3.4434,3.447,3.4503,3.453,3.455,3.4573,3.4601,3.4629,3.4642,3.4646,3.464,3.4629,3.4629,3.4628,3.4638,3.4656,3.4671,3.4698,3.4725,3.4743,3.4769,3.4805,3.4831,3.486,3.4878,3.4897,3.487,3.4734,3.4555,3.446,3.4418,3.4409,3.4413,3.4431,3.4456,3.4478,3.4506,3.4526,3.4547,3.458,3.4605,3.462,3.462,3.4633,3.4622,3.4616,3.4613,3.4623,3.4646,3.4664,3.4685,3.4707,3.4731,3.4758,3.4789,3.4817,3.4841,3.4865,3.4883,3.4893,3.4838,3.4654,3.4508,3.4436,3.4402,3.4394,3.4407,3.444,3.4469,3.4492,3.4505,3.4524,3.455,3.4583,3.4597,3.4613,3.4608,3.4602,3.459,3.4588,3.46,3.4608,3.462,3.4638,3.4666,3.4695,3.4721,3.4747,3.477,3.4794,3.4815,3.4848,3.4863,3.4841,3.4724,3.4551,3.4456,3.4414,3.4402,3.4407,3.4421,3.4447,3.4481,3.4502,3.4525,3.4547,3.4572,3.4592,3.4604,3.4611,3.4602,3.4592,3.4592,3.4595,3.4605,3.4626,3.4644,3.467,3.4687,3.4721,3.4745,3.4766,3.4792,3.4819,3.4843,3.4867,3.4879,3.4857,3.4726,3.4545,3.445,3.4403,3.4387,3.439,3.4408,3.4442,3.4466,3.4484,3.4495,3.4515,3.4546,3.4564,3.4587,3.46,3.4601,3.4591,3.4584,3.4581,3.4598,3.4614,3.4626,3.4656,3.468,3.4706,3.473,,,33.0,,1.0
3.4758,3.4781,3.4812,3.4835,3.4874,3.4891,3.4889,3.4804,3.4628,3.4508,3.4456,3.4426,3.4425,3.4439,3.4468,3.4498,3.4523,3.4542,3.4556,3.4578,3.461,3.4631,3.463,3.4632,3.4623,3.4624,3.4625,3.4624,3.464,3.4662,3.4683,3.4704,3.4726,3.4753,3.4783,3.4816,3.4842,3.4871,3.4882,3.4872,3.4779,3.4603,3.4486,3.444,3.4425,3.4429,3.4452,3.4474,3.4504,3.452,3.4545,3.4567,3.4594,3.4628,3.4648,3.4656,3.465,3.4655,3.4651,3.4646,3.4648,3.4659,3.4684,3.4707,3.4738,3.4769,3.4795,3.4821,3.4843,3.4877,3.4898,3.4927,3.4939,3.4904,3.4773,3.4585,3.4494,3.4453,3.444,3.4455,3.4481,3.4516,3.4563,3.4589,3.4617,3.4645,3.4676,3.47,3.4702,3.4708,3.4688,3.4688,3.4681,3.4679,3.4687,3.4712,3.4727,3.475,3.4777,3.4801,3.4832,3.4868,3.4888,3.492,3.4939,3.4954,3.4936,3.4815,3.4624,3.4523,3.448,3.4475,3.4489,3.4513,3.455,3.4586,3.463,3.4668,3.47,3.4726,3.4739,3.4735,3.4732,3.4724,3.471,3.4702,3.4706,3.4718,3.4743,3.4768,3.4791,3.4813,3.4846,3.4872,3.4899,3.4928,3.4955,3.4976,3.4979,3.4894,3.4713,3.4566,3.4513,3.4484,3.4487,3.4513,3.454,3.4573,3.461,3.4642,3.4662,3.4695,3.4723,3.4737,3.4741,3.4739,3.4727,3.4721,3.472,3.4724,3.4741,3.4757,3.479,3.481,3.4837,3.487,3.4897,3.4923,3.4952,3.4979,3.4991,3.4962,3.4822,3.4628,3.4534,3.4495,3.4487,3.4494,3.4517,3.4551,3.4589,3.4608,3.463,3.4654,3.468,3.4703,3.4714,3.4723,3.4729,3.4714,3.471,3.4718,3.4726,3.4734,3.4755,3.4776,3.4809,3.4838,3.4866,3.4896,3.4925,3.495,3.4973,3.4988,3.4939,3.4768,3.4601,3.4524,3.4498,3.4493,3.4506,3.4525,3.4553,3.4586,3.4612,3.4633,3.4665,3.4691,3.4714,3.4723,3.4733,3.4731,3.4728,3.472,3.4718,3.4728,3.4751,3.4768,3.4789,3.4815,3.4849,3.488,3.4906,3.4925,3.4961,3.4984,3.4997,3.4984,3.4878,3.4682,3.4558,3.4507,3.4499,3.4505,3.4532,3.4562,3.4594,3.4629,3.4653,3.4683,3.4716,3.4738,3.4748,3.4748,3.4744,3.4734,3.4729,3.4722,3.4738,3.4744,3.4769,3.4795,3.4817,3.484,3.4863,3.4891,3.4925,3.4952,3.4976,3.4987,3.4967,3.4858,3.4671,3.4561,3.4524,3.4506,3.4512,3.4532,3.4579,3.4618,3.465,3.4676,3.4704,3.4738,3.4759,3.4758,3.475,3.4736,3.4726,3.4726,3.4736,3.4746,3.4759,3.4778,3.4811,3.4831,3.486,3.4887,3.4913,3.4939,,,34.0,,1.0
3.4515,3.4533,3.4553,3.4587,3.4602,3.4615,3.4628,3.4619,3.4619,3.4616,3.4617,3.4628,3.4638,3.4665,3.4692,3.4714,3.4735,3.4764,3.4789,3.4817,3.4848,3.4876,3.4882,3.4855,3.4706,3.4533,3.4443,3.4398,3.4382,3.439,3.4416,3.4445,3.447,3.4486,3.451,3.4535,3.4566,3.4591,3.4613,3.4627,3.4623,3.4629,3.4618,3.4625,3.4627,3.4651,3.4668,3.4694,3.4719,3.4746,3.4774,3.4798,3.483,3.4865,3.4891,3.4915,3.4933,3.4925,3.4821,3.4622,3.4478,3.4428,3.4408,3.4411,3.4433,3.4466,3.4502,3.4536,3.4559,3.4587,3.462,3.464,3.466,3.467,3.4667,3.466,3.465,3.4645,3.4657,3.4669,3.4685,3.4706,3.4739,3.4767,3.4793,3.4818,3.4844,3.4871,3.4903,3.4921,3.4925,3.4852,3.4677,3.4516,3.4454,3.4422,3.443,3.4446,3.4487,3.4527,3.4563,3.4594,3.4634,3.4658,3.4679,3.4695,3.4697,3.4685,3.467,3.466,3.4655,3.4668,3.4693,3.4712,3.4733,3.476,3.4783,3.4815,3.484,3.4864,3.4893,3.4927,3.4937,3.4895,3.4749,3.4557,3.4469,3.4432,3.442,3.4431,3.446,3.4498,3.4524,3.4559,3.4584,3.4608,3.4641,3.4661,3.4668,3.4674,3.4668,3.4666,3.4659,3.4659,3.4667,3.4687,3.4707,3.473,3.4758,3.4785,3.4821,3.4851,3.488,3.4904,3.492,3.4898,3.4759,3.457,3.4469,3.4428,3.4408,3.442,3.4437,3.4471,3.4494,3.4515,3.4542,3.4569,3.4597,3.4623,3.4634,3.4643,3.4647,3.464,3.4633,3.4633,3.4639,3.4657,3.4674,3.4695,3.472,3.4752,3.4786,3.4811,3.4845,3.4867,3.489,3.4888,3.4823,3.4644,3.4499,3.4429,3.4403,3.4402,3.4418,3.4445,3.4469,3.4499,3.4516,3.4541,3.4575,3.4596,3.462,3.4628,3.4628,3.462,3.4605,3.4609,3.4618,3.4625,3.4637,3.4659,3.4684,3.471,3.4738,3.4771,3.4795,3.4825,3.4845,3.4866,3.4832,3.4699,3.4525,3.4443,3.4398,3.4384,3.4394,3.442,3.4451,3.4491,3.452,3.4542,3.4569,3.4589,3.4614,3.4615,3.4607,3.4598,3.4589,3.4588,3.4597,3.4604,3.4629,3.4654,3.4677,3.4701,3.4731,3.4754,3.4775,3.4802,3.4834,3.4848,3.4825,3.4685,3.4511,3.4417,3.4378,3.436,3.4368,3.4387,3.4417,3.4447,3.4466,3.4482,3.4508,3.4536,3.4566,3.4578,3.4577,3.4574,3.4567,3.4569,3.4563,3.4578,3.4591,3.4609,3.4635,3.4659,3.4683,3.4717,3.4748,3.4775,3.4794,3.4821,3.4836,3.4794,3.4639,3.4475,3.4391,3.4348,3.4339,3.4346,3.4367,3.4389,3.4408,3.4435,3.4442,3.447,3.4491,3.4525,,,35.0,,1.0
3.4822,3.485,3.4858,3.4825,3.4693,3.4504,3.4419,3.4385,3.4374,3.4391,3.4417,3.4462,3.4495,3.4531,3.4567,3.4592,3.4622,3.4632,3.464,3.4638,3.4622,3.4616,3.4614,3.4615,3.4629,3.4652,3.4679,3.4698,3.4723,3.4752,3.4782,3.4805,3.4839,3.4861,3.4881,3.4897,3.4837,3.4669,3.4508,3.4433,3.4402,3.44,3.4422,3.4447,3.4474,3.4514,3.4547,3.4567,3.4595,3.4626,3.466,3.4666,3.467,3.4659,3.4656,3.466,3.4667,3.4671,3.4688,3.4707,3.4732,3.476,3.4798,3.4828,3.4858,3.4884,3.4915,3.4919,3.4856,3.4691,3.4519,3.4442,3.441,3.441,3.4434,3.4456,3.4485,3.4515,3.4541,3.4569,3.4594,3.4625,3.4647,3.4666,3.4678,3.468,3.4675,3.4667,3.4665,3.468,3.4702,3.4713,3.4747,3.4777,3.4809,3.4839,3.4867,3.4895,3.4917,3.4911,3.4807,3.4622,3.4499,3.4444,3.4427,3.4427,3.4447,3.4486,3.4524,3.4549,3.4579,3.4603,3.4648,3.4673,3.4692,3.4699,3.4701,3.4703,3.47,3.4694,3.4695,3.4703,3.4726,3.4747,3.478,3.4812,3.4843,3.4875,3.49,3.493,3.4945,3.4896,3.473,3.455,3.4481,3.4451,3.4446,3.4461,3.4498,3.4534,3.4567,3.4601,3.4631,3.467,3.4695,3.472,3.4736,3.473,3.4733,3.4722,3.4715,3.4718,3.4732,3.4748,3.4779,3.481,3.4838,3.4877,3.4903,3.4931,3.4953,3.4925,3.479,3.4604,3.4503,3.4474,3.4467,3.4481,3.4511,3.4556,3.4593,3.4632,3.4668,3.4716,3.4748,3.4768,3.4773,3.4772,3.476,3.4746,3.4745,3.4746,3.4759,3.4772,3.479,3.4818,3.4859,3.489,3.4921,3.4947,3.4977,3.4955,3.4838,3.4639,3.4527,3.4493,3.4485,3.4499,3.4535,3.4575,3.463,3.4673,3.4711,3.4748,3.4776,3.4792,3.4791,3.4781,3.4764,3.4762,3.4758,3.4762,3.478,3.4796,3.4819,3.4854,3.4884,3.4913,3.4939,3.4971,3.5004,3.5012,3.4953,3.4773,3.4597,3.4525,3.4492,3.4495,3.4522,3.4557,3.4602,3.4646,3.4682,3.4723,3.4756,3.4786,3.4806,3.4806,3.4797,3.4784,3.4775,3.4772,3.4783,3.4799,3.4819,3.4841,3.4869,3.4899,3.4933,3.4962,3.4988,3.5021,3.5038,3.4984,3.4814,3.4621,3.4535,3.4507,3.4507,3.4519,3.4558,3.4592,3.4635,3.4667,3.4703,3.4745,3.4776,3.4795,3.4797,3.4794,3.4797,3.4788,3.4783,3.4788,3.4797,3.4817,3.4836,3.4865,3.4888,3.4922,3.496,3.4984,3.5015,3.5037,3.5057,3.5029,3.4887,3.4687,3.4568,3.4524,3.4511,3.4524,3.4558,3.4597,3.464,3.4679,3.4726,3.4751,3.4788,3.4811,,,36.0,,1.0
3.4654,3.4585,3.4572,3.4583,3.461,3.4657,3.4708,3.4755,3.4815,3.4858,3.4896,3.4912,3.4909,3.4891,3.4876,3.4856,3.485,3.4849,3.486,3.4879,3.4903,3.4936,3.4959,3.4983,3.5006,3.5029,3.5061,3.5082,3.5104,3.5105,3.5007,3.481,3.4651,3.4596,3.4583,3.4587,3.4611,3.4648,3.47,3.4745,3.4778,3.4811,3.4841,3.487,3.4887,3.4887,3.4877,3.4866,3.4856,3.4865,3.4878,3.4891,3.4903,3.4934,3.4954,3.499,3.5016,3.5043,3.5065,3.5091,3.5121,3.5123,3.5039,3.4849,3.4669,3.4601,3.458,3.4577,3.4588,3.4627,3.4669,3.4703,3.4729,3.4763,3.4794,3.4826,3.4845,3.4856,3.4861,3.4849,3.4845,3.4841,3.4846,3.4855,3.487,3.4895,3.4928,3.4948,3.4987,3.5012,3.5037,3.5063,3.5093,3.5106,3.5089,3.4979,3.4784,3.4642,3.4587,3.4567,3.4574,3.4593,3.4633,3.4669,3.4701,3.4738,3.4777,3.4809,3.4833,3.484,3.4848,3.4855,3.4843,3.4842,3.4839,3.4841,3.4865,3.4883,3.4904,3.4928,3.4952,3.4984,3.5016,3.5034,3.5068,3.5094,3.5109,3.5092,3.4989,3.4801,3.4645,3.4579,3.4566,3.457,3.46,3.4645,3.4684,3.4722,3.4755,3.479,3.4824,3.4848,3.4864,3.4867,3.4856,3.4846,3.484,3.4844,3.4849,3.4865,3.4879,3.4903,3.4934,3.4955,3.4975,3.5003,3.5031,3.5067,3.5083,3.5106,3.5102,3.5014,3.4822,3.4661,3.4601,3.4577,3.458,3.4605,3.4653,3.4692,3.4735,3.4786,3.4819,3.4853,3.4869,3.4881,3.4873,3.4854,3.4842,3.4829,3.4844,3.4852,3.4873,3.4892,3.4917,3.4938,3.4957,3.4987,3.5012,3.5031,3.5057,3.5084,3.5098,3.5094,3.4997,3.4799,3.4652,3.459,3.4567,3.457,3.4604,3.4638,3.4686,3.4725,3.4756,3.479,3.4823,3.4848,3.4849,3.4843,3.483,3.4818,3.482,3.4821,3.4834,3.4852,3.4868,3.4891,3.4915,3.4949,3.497,3.4996,3.5019,3.504,3.5064,3.5072,3.503,3.4889,3.47,3.4601,3.4552,3.454,3.4551,3.4587,3.4616,3.4642,3.4668,3.469,3.4723,3.4755,3.477,3.4793,3.479,3.4788,3.478,3.4773,3.4773,3.478,3.4801,3.4818,3.4848,3.4875,3.4895,3.4919,3.4937,3.497,3.499,3.502,3.5032,3.5037,3.4961,3.4778,3.4618,3.4557,3.4524,3.451,3.4534,3.4553,3.4582,3.4605,3.4633,3.4655,3.468,3.4704,3.4726,3.4741,3.4746,3.4744,3.4735,3.474,3.4736,3.4751,3.477,3.4786,3.4819,3.4834,3.4867,3.4885,3.4909,3.4931,3.4949,3.4976,3.5,3.5024,3.5022,3.4943,3.4762,3.4594,3.4526,3.4502,,,37.0,,1.0
3.4823,3.4844,3.486,3.4889,3.4918,3.4935,3.4954,3.4977,3.4999,3.5021,3.5006,3.4897,3.4702,3.4566,3.451,3.4496,3.4511,3.4537,3.4572,3.4607,3.4646,3.4674,3.4702,3.473,3.4757,3.4764,3.4758,3.4742,3.4737,3.4736,3.474,3.4753,3.4769,3.4798,3.482,3.4842,3.4865,3.4897,3.4915,3.4945,3.497,3.5001,3.5002,3.4965,3.4833,3.4641,3.4536,3.4495,3.4484,3.4491,3.4511,3.4538,3.457,3.4595,3.4614,3.4639,3.4675,3.4701,3.4714,3.4727,3.473,3.4725,3.4719,3.4716,3.4725,3.4742,3.4757,3.4783,3.4811,3.484,3.4866,3.4892,3.4924,3.4951,3.4971,3.4985,3.4955,3.4833,3.4646,3.4521,3.4478,3.446,3.4459,3.4482,3.4503,3.453,3.4554,3.4573,3.4603,3.4625,3.4659,3.4686,3.4697,3.4697,3.4697,3.4694,3.4693,3.4697,3.4705,3.4723,3.4752,3.4769,3.4792,3.482,3.4844,3.4865,3.4893,3.4924,3.4951,3.4962,3.4949,3.4846,3.4659,3.4524,3.4466,3.4446,3.4448,3.4463,3.4487,3.451,3.4532,3.4559,3.4583,3.4612,3.4638,3.4661,3.4676,3.4684,3.4682,3.467,3.4669,3.4671,3.4692,3.4713,3.4735,3.4757,3.4774,3.48,3.4821,3.4849,3.4874,3.4894,3.4917,3.4946,3.4957,3.4942,3.4843,3.466,3.4527,3.4463,3.4437,3.4443,3.4469,3.4491,3.453,3.4558,3.4581,3.4608,3.4635,3.4662,3.4677,3.4681,3.4677,3.4673,3.4669,3.4667,3.4673,3.4692,3.4712,3.4731,3.475,3.4774,3.4802,3.4823,3.4846,3.4867,3.4888,3.4908,3.4933,3.4946,3.4903,3.4756,3.4573,3.448,3.4454,3.4439,3.4449,3.4471,3.4508,3.4535,3.4565,3.4594,3.4619,3.4643,3.4672,3.4677,3.4676,3.4669,3.4658,3.4662,3.4668,3.4678,3.4691,3.4718,3.4737,3.4763,3.4792,3.4814,3.4831,3.4851,3.4879,3.4904,3.4919,3.4936,3.4938,3.4883,3.4708,3.4548,3.447,3.4435,3.4426,3.4436,3.4458,3.4486,3.4511,3.4526,3.4544,3.4565,3.4588,3.462,3.4637,3.464,3.464,3.4638,3.4634,3.4631,3.4645,3.4664,3.4684,3.4707,3.4727,3.4757,3.4778,3.4799,3.4813,3.4833,3.4861,3.4888,3.4911,3.4925,3.4917,3.4835,3.4645,3.4503,3.4438,3.4415,3.4406,3.4428,3.4445,3.4476,3.4501,3.4517,3.4533,3.4556,3.4583,3.4612,3.4629,3.4632,3.4624,3.4623,3.4625,3.4628,3.4632,3.4656,3.4677,3.4705,3.4738,3.476,3.4782,3.4796,3.4818,3.4843,3.4863,3.4886,3.4898,3.4923,3.4928,3.4886,3.4742,3.4555,3.4465,3.4421,3.4412,3.4429,3.4452,3.4483,3.4509,3.4537,3.4563,3.4588,,,38.0,,1.0
3.4634,3.4629,3.4614,3.4609,3.461,3.4616,3.4629,3.4645,3.4661,3.4683,3.4713,3.4734,3.4754,3.4772,3.4795,3.482,3.4842,3.4859,3.4875,3.4868,3.4774,3.4588,3.446,3.4408,3.439,3.4392,3.4418,3.4453,3.4487,3.4515,3.4535,3.4566,3.4593,3.4605,3.4622,3.4625,3.4618,3.461,3.4615,3.4612,3.4618,3.4631,3.4659,3.4685,3.4707,3.4738,3.4761,3.4781,3.4803,3.4827,3.4854,3.4877,3.4893,3.4892,3.4834,3.4662,3.4497,3.4426,3.4391,3.4384,3.4392,3.4416,3.4451,3.4481,3.4496,3.4514,3.4537,3.4574,3.4589,3.4601,3.4608,3.4608,3.4597,3.4587,3.46,3.4615,3.4628,3.4645,3.4666,3.4698,3.4712,3.4734,3.4765,3.4788,3.4812,3.4835,3.4855,3.4869,3.485,3.4735,3.4541,3.4432,3.438,3.4367,3.4367,3.4388,3.4415,3.4453,3.4478,3.449,3.4517,3.4539,3.4564,3.457,3.4581,3.4585,3.4581,3.4571,3.4571,3.4581,3.46,3.4617,3.4636,3.4655,3.4682,3.4699,3.4727,3.476,3.4778,3.4805,3.4821,3.4843,3.483,3.4733,3.4547,3.443,3.4375,3.4348,3.4357,3.438,3.441,3.4442,3.4466,3.449,3.4519,3.4542,3.4563,3.4577,3.4577,3.4567,3.4559,3.4556,3.4562,3.4568,3.4583,3.4599,3.4623,3.4649,3.4666,3.4688,3.4707,3.4739,3.4759,3.478,3.4806,3.4816,3.4779,3.4639,3.4467,3.4388,3.4344,3.4333,3.4344,3.4367,3.4401,3.4433,3.4461,3.448,3.4506,3.4533,3.4547,3.4549,3.4542,3.4537,3.4537,3.4533,3.4536,3.4546,3.4569,3.4595,3.461,3.4632,3.4661,3.4687,3.4705,3.4724,3.475,3.4774,3.4785,3.475,3.4613,3.4445,3.4357,3.4313,3.4308,3.431,3.4326,3.4359,3.4381,3.4393,3.4413,3.4437,3.4465,3.4476,3.4497,3.4508,3.4506,3.4496,3.4489,3.4491,3.4508,3.4519,3.4536,3.4563,3.4584,3.4605,3.4624,3.4644,3.4675,3.4698,3.472,3.4738,3.4753,3.4715,3.4585,3.4413,3.433,3.4282,3.4258,3.4266,3.4294,3.4317,3.4336,3.4344,3.4362,3.4369,3.4399,3.4424,3.4437,3.4444,3.4444,3.4443,3.444,3.4439,3.4441,3.4455,3.4476,3.451,3.4526,3.4546,3.4564,3.4589,3.4613,3.4628,3.4658,3.4681,3.4699,3.4702,3.4666,3.4532,3.4376,3.4293,3.4242,3.4221,3.4225,3.4251,3.4273,3.4292,3.4307,3.4317,3.4335,3.4352,3.439,3.4402,3.4408,3.4407,3.4398,3.4387,3.4386,3.4402,3.442,3.4442,3.4463,3.4488,3.4513,3.4536,3.4554,3.457,3.4591,3.4614,3.4632,3.4649,3.4677,3.4684,3.4677,3.4577,3.4399,3.4288,3.4235,3.4214,,,39.0,,1.0
3.4615,3.4639,3.4651,3.4671,3.4672,3.4604,3.4437,3.4303,3.4249,3.4216,3.4223,3.424,3.4267,3.4297,3.4318,3.434,3.4365,3.4384,3.4401,3.4423,3.4423,3.4416,3.4411,3.4412,3.4413,3.4416,3.4434,3.4457,3.4478,3.45,3.4516,3.4531,3.4558,3.4575,3.4591,3.4626,3.4641,3.4668,3.468,3.467,3.4584,3.4401,3.429,3.4234,3.4215,3.4215,3.4234,3.4261,3.4285,3.4302,3.4324,3.4336,3.4357,3.4378,3.4398,3.4407,3.4406,3.4406,3.44,3.4404,3.4408,3.442,3.444,3.447,3.4503,3.4521,3.4543,3.4561,3.4581,3.4609,3.4633,3.4654,3.4673,3.4681,3.4679,3.4593,3.4426,3.4308,3.4252,3.4232,3.423,3.4241,3.4274,3.4301,3.4321,3.4329,3.434,3.4359,3.4388,3.4416,3.4426,3.4436,3.4439,3.4431,3.4425,3.4434,3.4446,3.4466,3.4485,3.4504,3.4534,3.4549,3.4578,3.4608,3.4633,3.4654,3.4674,3.4693,3.4712,3.4698,3.4586,3.4425,3.4326,3.4279,3.4265,3.4271,3.4293,3.4318,3.4342,3.4358,3.4379,3.4402,3.4421,3.4444,3.4462,3.4471,3.4476,3.448,3.4473,3.4472,3.4486,3.4496,3.4515,3.4534,3.4568,3.4584,3.461,3.463,3.465,3.4667,3.4688,3.4716,3.473,3.4737,3.4695,3.4563,3.4426,3.4359,3.4328,3.4327,3.4347,3.4367,3.4407,3.4433,3.4451,3.4468,3.4487,3.4518,3.4527,3.4531,3.4535,3.4537,3.4535,3.4535,3.4536,3.4551,3.4565,3.4577,3.4603,3.4629,3.4648,3.4669,3.4684,3.4717,3.4728,3.4754,3.4778,3.4785,3.4748,3.4613,3.4488,3.4424,3.4398,3.4395,3.4413,3.4445,3.4481,3.4507,3.4522,3.454,3.4557,3.459,3.4605,3.4613,3.4615,3.4612,3.4613,3.4607,3.4619,3.4621,3.4639,3.4645,3.4672,3.469,3.4709,3.4729,3.4752,3.4771,3.479,3.4816,3.4818,3.4792,3.4668,3.4543,3.448,3.4451,3.4452,3.4476,3.4506,3.4531,3.4561,3.4578,3.459,3.4608,3.4625,3.4632,3.4644,3.4648,3.4642,3.4636,3.4634,3.4644,3.4649,3.4665,3.4683,3.4704,3.4731,3.4747,3.4773,3.48,3.4822,3.4841,3.486,3.4843,3.4743,3.462,3.4544,3.4512,3.4502,3.4511,3.4529,3.4547,3.4566,3.4588,3.4598,3.4609,3.462,3.4636,3.4656,3.4672,3.4674,3.4671,3.4664,3.4672,3.4678,3.4684,3.4697,3.4716,3.4736,3.4755,3.4771,3.4791,3.4817,3.4838,3.4867,3.4887,3.4886,3.4822,3.4692,3.4604,3.4567,3.4543,3.4538,3.456,3.4576,3.4597,3.4607,3.462,3.4628,3.4647,3.4662,3.4687,3.47,3.4699,3.4703,3.4706,3.4704,3.47,3.471,3.4729,,,40.0,,1.0
3.4726,3.4744,3.4752,3.4744,3.4738,3.4746,3.4747,3.4752,3.4759,3.4767,3.4797,3.481,3.4829,3.4848,3.4871,3.4894,3.4907,3.4922,3.4946,3.4958,3.497,3.4973,3.4928,3.4792,3.4699,3.4646,3.4628,3.4625,3.4641,3.467,3.4692,3.4714,3.4734,3.4756,3.4772,3.4788,3.48,3.4809,3.4804,3.4797,3.4787,3.4791,3.48,3.4808,3.4823,3.4843,3.4864,3.4879,3.4892,3.491,3.4933,3.4957,3.4973,3.4994,3.5007,3.5019,3.5004,3.4893,3.476,3.4688,3.4653,3.4652,3.4673,3.4692,3.4718,3.4749,3.4764,3.4783,3.4802,3.4817,3.4842,3.4847,3.4844,3.4835,3.4829,3.4833,3.4836,3.4846,3.4865,3.4882,3.4901,3.4918,3.494,3.4964,3.4981,3.5009,3.5031,3.5048,3.5067,3.5082,3.5064,3.4953,3.48,3.4713,3.4682,3.4669,3.4679,3.4704,3.4728,3.4745,3.4764,3.4788,3.4799,3.4812,3.4834,3.4855,3.4861,3.4861,3.4853,3.4851,3.4857,3.486,3.4867,3.4889,3.4905,3.4922,3.4948,3.4978,3.4999,3.5012,3.5039,3.5066,3.5085,3.5099,3.5088,3.5,3.4848,3.4742,3.4699,3.4687,3.4687,3.4698,3.4725,3.4756,3.4773,3.4785,3.481,3.483,3.4848,3.486,3.4867,3.4874,3.4866,3.4868,3.4866,3.4871,3.4884,3.4899,3.4913,3.4937,3.496,3.4981,3.5006,3.5033,3.5051,3.5069,3.5085,3.5113,3.5121,3.5097,3.4985,3.4819,3.4732,3.4698,3.469,3.4702,3.4725,3.4754,3.4782,3.4799,3.4808,3.4832,3.486,3.4871,3.489,3.4894,3.4887,3.488,3.4884,3.4887,3.4895,3.4902,3.4912,3.4936,3.4962,3.4983,3.5001,3.5017,3.5039,3.5059,3.5076,3.5102,3.5118,3.5128,3.5064,3.4908,3.4776,3.4725,3.4709,3.4704,3.4722,3.4754,3.4783,3.4807,3.4835,3.4868,3.4891,3.4908,3.4915,3.4912,3.4909,3.4902,3.4889,3.4888,3.4896,3.4908,3.4921,3.4945,3.4971,3.499,3.5005,3.5023,3.5047,3.5077,3.5087,3.5114,3.5131,3.5103,3.4986,3.4821,3.4741,3.4702,3.4693,3.4702,3.4726,3.4754,3.4784,3.4817,3.4833,3.4853,3.4876,3.4896,3.4904,3.4898,3.4888,3.4878,3.4874,3.4881,3.4894,3.4912,3.4928,3.4946,3.4979,3.4999,3.5018,3.5036,3.5059,3.5089,3.5113,3.5123,3.5115,3.5013,3.4837,3.4734,3.4692,3.4678,3.4673,3.4691,3.472,3.4742,3.4766,3.4775,3.4791,3.4818,3.4835,3.4851,3.4852,3.4847,3.4839,3.4831,3.4836,3.4844,3.4849,3.4868,3.4897,3.4924,3.494,3.4956,3.4986,3.5003,3.5026,3.5045,3.5074,3.5083,3.5056,3.4934,3.4777,3.4692,3.4654,3.4641,,,41.0,,1.0
3.5028,3.5051,3.5065,3.5045,3.4936,3.4773,3.4672,3.4636,3.4621,3.4626,3.4642,3.4667,3.4693,3.4719,3.4737,3.4755,3.4785,3.4796,3.4811,3.4808,3.4806,3.4795,3.479,3.4797,3.4812,3.4823,3.484,3.4859,3.4886,3.4905,3.4925,3.4941,3.4965,3.4991,3.5018,3.5032,3.5047,3.502,3.4907,3.4744,3.4657,3.4612,3.4598,3.4611,3.4634,3.4663,3.4691,3.4724,3.4742,3.4772,3.4795,3.4806,3.4818,3.481,3.4795,3.4795,3.4792,3.4794,3.4811,3.482,3.4843,3.486,3.4883,3.491,3.4927,3.4948,3.4976,3.5004,3.5025,3.5033,3.4996,3.4861,3.4709,3.4627,3.458,3.4574,3.4576,3.4598,3.4632,3.4657,3.4674,3.469,3.472,3.4744,3.4766,3.4776,3.4771,3.4766,3.4762,3.4758,3.4766,3.4781,3.4794,3.481,3.4836,3.4869,3.4888,3.491,3.494,3.4965,3.4986,3.5001,3.5019,3.4986,3.4836,3.4676,3.4598,3.4555,3.4544,3.4547,3.4563,3.4595,3.4616,3.4626,3.4649,3.4668,3.4695,3.4716,3.474,3.474,3.4752,3.4742,3.4737,3.4739,3.4747,3.4757,3.4776,3.4798,3.4827,3.4857,3.4878,3.4902,3.4932,3.4956,3.4978,3.4998,3.5003,3.4923,3.475,3.4614,3.4551,3.4528,3.4521,3.4532,3.4554,3.4588,3.4611,3.4625,3.4637,3.4656,3.4681,3.4709,3.4722,3.4725,3.4727,3.4721,3.4719,3.4725,3.474,3.476,3.478,3.4798,3.482,3.485,3.4869,3.4901,3.493,3.4947,3.497,3.499,3.5004,3.4982,3.4845,3.4665,3.4571,3.4525,3.4506,3.4511,3.4536,3.4563,3.4596,3.4616,3.4634,3.4655,3.4686,3.4713,3.4727,3.4728,3.4725,3.4729,3.4715,3.4722,3.4739,3.4747,3.4776,3.4797,3.4814,3.4836,3.4858,3.4886,3.4904,3.4927,3.4949,3.4977,3.5003,3.5019,3.5007,3.4916,3.4742,3.4593,3.4539,3.4521,3.4521,3.4542,3.4573,3.4602,3.4629,3.4663,3.4687,3.4712,3.4733,3.4748,3.4745,3.4741,3.4741,3.4736,3.4733,3.4739,3.475,3.4776,3.4795,3.4821,3.4843,3.4872,3.4891,3.4909,3.4926,3.495,3.4967,3.4991,3.5013,3.5002,3.4899,3.4714,3.4594,3.4535,3.4519,3.4526,3.4548,3.4577,3.4606,3.4646,3.4667,3.4692,3.4719,3.4735,3.4749,3.4753,3.4741,3.4734,3.4728,3.4734,3.4746,3.4759,3.4771,3.4794,3.4818,3.4838,3.4856,3.4873,3.4896,3.4923,3.4943,3.4974,3.4995,3.5013,3.4963,3.4825,3.4649,3.456,3.4519,3.4502,3.4515,3.4542,3.457,3.4597,3.4615,3.4627,3.4654,3.468,3.4692,3.4713,3.4715,3.4711,3.4712,3.4715,3.4708,3.4726,3.4741,3.4763,,,42.0,,1.0
3.4674,3.4702,3.4709,3.4713,3.4709,3.4714,3.4706,3.4715,3.4734,3.4749,3.4771,3.4793,3.4817,3.4842,3.4866,3.4886,3.4907,3.492,3.4951,3.4972,3.499,3.4997,3.4983,3.4873,3.468,3.4573,3.4512,3.45,3.451,3.453,3.4559,3.4592,3.4616,3.4643,3.4668,3.4695,3.4721,3.4724,3.4728,3.4724,3.4724,3.472,3.4718,3.4724,3.4743,3.4765,3.4788,3.4811,3.483,3.4852,3.4878,3.4906,3.493,3.495,3.4973,3.499,3.4994,3.4944,3.4784,3.4613,3.4532,3.4507,3.4503,3.4515,3.4544,3.4586,3.4621,3.4648,3.4669,3.4692,3.4711,3.4724,3.4732,3.4717,3.4713,3.4699,3.4703,3.4713,3.4732,3.4748,3.4765,3.4782,3.4812,3.4827,3.4854,3.4884,3.4908,3.4926,3.4944,3.4951,3.4908,3.4749,3.459,3.4519,3.449,3.4477,3.4489,3.4511,3.4544,3.4557,3.4582,3.46,3.4617,3.4642,3.4661,3.4683,3.4685,3.4679,3.4669,3.4674,3.4677,3.4683,3.4701,3.4722,3.474,3.4769,3.4797,3.4819,3.4841,3.4865,3.4891,3.4921,3.4935,3.4896,3.4767,3.4592,3.4503,3.4454,3.4446,3.444,3.4465,3.4477,3.4506,3.4514,3.4529,3.454,3.4562,3.4591,3.4619,3.4632,3.4631,3.4627,3.4622,3.4621,3.4626,3.464,3.465,3.4678,3.4707,3.473,3.4751,3.4771,3.4798,3.4822,3.4847,3.4869,3.4885,3.4877,3.4796,3.4626,3.4501,3.444,3.4405,3.4402,3.4419,3.4439,3.4455,3.4466,3.4477,3.4496,3.4513,3.4551,3.4571,3.4588,3.4592,3.4591,3.4581,3.4586,3.4592,3.4594,3.462,3.4646,3.4664,3.4689,3.4709,3.4736,3.4761,3.4778,3.4795,3.4825,3.4847,3.4868,3.4871,3.481,3.4646,3.4498,3.4425,3.4399,3.4397,3.4405,3.4419,3.445,3.4475,3.4488,3.45,3.4521,3.4553,3.4582,3.459,3.4605,3.4595,3.4599,3.4596,3.4594,3.4608,3.4622,3.4645,3.4673,3.4691,3.4717,3.4744,3.4767,3.4787,3.4805,3.4825,3.4852,3.4874,3.489,3.4881,3.4816,3.4653,3.4504,3.4443,3.4413,3.4409,3.4421,3.4447,3.4485,3.451,3.4534,3.455,3.4585,3.4603,3.462,3.4636,3.4632,3.4627,3.4617,3.4616,3.4635,3.4647,3.4665,3.4684,3.4716,3.4733,3.4757,3.4782,3.4803,3.4821,3.4841,3.4864,3.4888,3.4903,3.4915,3.4898,3.4785,3.4605,3.4497,3.4451,3.4435,3.444,3.4459,3.4498,3.4538,3.456,3.4583,3.4603,3.4635,3.465,3.4665,3.4664,3.4663,3.4659,3.4653,3.4658,3.4676,3.4687,3.4719,3.4747,3.477,3.4792,3.4813,3.4833,3.4861,3.4883,3.49,3.4922,3.4946,3.4971,3.4974,,,43.0,,1.0
3.4673,3.4688,3.4706,3.4726,3.4745,3.4765,3.479,3.482,3.4842,3.4865,3.4898,3.4918,3.4924,3.4902,3.4785,3.4588,3.449,3.4439,3.443,3.4436,3.4455,3.4478,3.4508,3.4536,3.456,3.4585,3.4616,3.4633,3.4652,3.4649,3.4646,3.4634,3.4631,3.4641,3.4647,3.4663,3.4689,3.4709,3.4743,3.4765,3.4791,3.4814,3.484,3.487,3.4889,3.4884,3.4819,3.465,3.4498,3.4431,3.4392,3.4382,3.4393,3.4418,3.4451,3.4473,3.4485,3.4509,3.4536,3.4563,3.459,3.4602,3.4608,3.46,3.4597,3.4593,3.4599,3.4615,3.4626,3.4646,3.4671,3.4695,3.472,3.4748,3.4779,3.4799,3.483,3.4856,3.4851,3.4803,3.4642,3.4474,3.4402,3.4368,3.4355,3.4365,3.4382,3.4409,3.4429,3.4445,3.4458,3.4482,3.4515,3.4542,3.4552,3.4569,3.4566,3.4558,3.4555,3.4563,3.4577,3.4584,3.4602,3.4631,3.4655,3.4681,3.4704,3.4725,3.4755,3.4775,3.4804,3.4829,3.4835,3.4773,3.4616,3.4455,3.4376,3.4341,3.4334,3.4347,3.4372,3.4404,3.4426,3.4441,3.4462,3.4489,3.4511,3.4534,3.4551,3.4552,3.4546,3.4542,3.4538,3.4547,3.4551,3.4571,3.459,3.4617,3.4646,3.4667,3.4686,3.4703,3.4733,3.4762,3.4783,3.4801,3.4799,3.475,3.4607,3.4452,3.4373,3.433,3.4322,3.434,3.4371,3.4404,3.443,3.4452,3.4479,3.45,3.4525,3.4547,3.4554,3.4547,3.4537,3.4528,3.4533,3.4537,3.4553,3.4576,3.4593,3.4615,3.4637,3.4658,3.4693,3.4707,3.4734,3.4755,3.4781,3.479,3.4725,3.4558,3.4415,3.4343,3.4317,3.4315,3.4326,3.4346,3.437,3.4386,3.4417,3.444,3.4461,3.4489,3.4506,3.4516,3.4515,3.4517,3.4513,3.4506,3.4511,3.4532,3.4551,3.4569,3.4596,3.4618,3.4643,3.4667,3.4689,3.4711,3.4747,3.4763,3.4775,3.4747,3.462,3.4445,3.4352,3.4312,3.4291,3.4286,3.4308,3.4332,3.4353,3.4363,3.4373,3.439,3.4417,3.4447,3.4471,3.4485,3.4486,3.4479,3.4481,3.4482,3.4488,3.4497,3.4521,3.4545,3.4565,3.4587,3.4603,3.4636,3.4656,3.4676,3.4692,3.471,3.4734,3.4734,3.4664,3.4501,3.4378,3.4306,3.4269,3.4266,3.4278,3.4296,3.431,3.4328,3.4335,3.4351,3.4383,3.441,3.4437,3.4453,3.4461,3.4466,3.4459,3.4456,3.4453,3.4465,3.4487,3.4509,3.4532,3.4551,3.4574,3.4603,3.4629,3.4653,3.4673,3.469,3.4714,3.4736,3.4739,3.4659,3.4495,3.4362,3.4303,3.4269,3.427,3.4293,3.432,3.4344,3.4368,3.4393,3.4416,3.4444,3.4466,3.4478,3.4493,3.4491,,,44.0,,1.0
3.4483,3.4498,3.4513,3.451,3.4511,3.4499,3.4498,3.4505,3.4515,3.4528,3.4544,3.4566,3.4592,3.4615,3.463,3.4656,3.4673,3.4693,3.4716,3.4741,3.4756,3.4712,3.4577,3.4433,3.4363,3.4324,3.4313,3.4318,3.4342,3.4366,3.439,3.4409,3.4423,3.4437,3.4458,3.4486,3.4496,3.4501,3.4506,3.45,3.4493,3.4495,3.4511,3.4533,3.455,3.4569,3.4594,3.4623,3.4643,3.4663,3.468,3.4703,3.4734,3.4748,3.4751,3.4697,3.4548,3.4427,3.4364,3.433,3.4328,3.4336,3.4361,3.4384,3.4399,3.4412,3.4422,3.4447,3.4468,3.4491,3.4502,3.4512,3.4518,3.4511,3.4507,3.4505,3.4525,3.4534,3.4547,3.4569,3.4592,3.4616,3.4641,3.4662,3.4678,3.4707,3.4732,3.4753,3.4765,3.4748,3.4659,3.4511,3.4418,3.4371,3.4349,3.4349,3.4369,3.4387,3.4412,3.4433,3.4439,3.4465,3.4478,3.4511,3.4523,3.4532,3.4532,3.4534,3.4539,3.4536,3.4539,3.4547,3.4563,3.4575,3.4599,3.4631,3.4653,3.4669,3.4691,3.4709,3.4732,3.476,3.478,3.4789,3.4762,3.4648,3.4504,3.4435,3.4405,3.4398,3.4403,3.4421,3.4442,3.4475,3.4502,3.4516,3.4537,3.4555,3.4574,3.459,3.4582,3.4586,3.4575,3.4579,3.4586,3.4587,3.4602,3.4618,3.4644,3.466,3.4682,3.4702,3.4722,3.4741,3.4762,3.4788,3.4805,3.4817,3.4796,3.4705,3.4561,3.4486,3.4445,3.4436,3.4445,3.4464,3.4484,3.4516,3.4533,3.455,3.4568,3.4593,3.461,3.4614,3.4616,3.4617,3.4611,3.4604,3.4613,3.4629,3.4644,3.4656,3.4676,3.4695,3.4717,3.4733,3.4749,3.4773,3.4798,3.4819,3.4838,3.4844,3.483,3.4729,3.4597,3.4526,3.4486,3.4469,3.4474,3.4493,3.4518,3.4537,3.4556,3.4565,3.4583,3.4598,3.4615,3.4638,3.4636,3.4646,3.4645,3.4642,3.4639,3.4646,3.4663,3.4679,3.4695,3.4709,3.4735,3.4756,3.4772,3.4792,3.4813,3.483,3.4849,3.4868,3.4859,3.4791,3.4652,3.4569,3.4525,3.4503,3.451,3.452,3.4541,3.4562,3.4576,3.4581,3.4593,3.4617,3.4642,3.4658,3.4665,3.4662,3.4667,3.4661,3.4666,3.4677,3.468,3.47,3.4714,3.4738,3.476,3.4775,3.4793,3.4808,3.4833,3.4848,3.4864,3.4878,3.4879,3.4849,3.474,3.4638,3.4581,3.4549,3.455,3.4571,3.4591,3.4606,3.4632,3.4643,3.4652,3.4674,3.4697,3.471,3.4713,3.4714,3.4713,3.471,3.4713,3.4714,3.4724,3.4738,3.4749,3.4763,3.478,3.4803,3.4823,3.4836,3.486,3.4876,3.4892,3.4904,3.489,3.4801,3.4683,3.4623,3.4593,3.458,,,45.0,,1.0
3.4756,3.4754,3.4693,3.4582,3.45,3.4455,3.4425,3.442,3.4429,3.4443,3.4454,3.4464,3.4481,3.4489,3.45,3.4514,3.4519,3.4529,3.4538,3.4536,3.4528,3.4526,3.4534,3.4537,3.4546,3.4573,3.4585,3.4603,3.4615,3.4634,3.4656,3.4668,3.4683,3.4698,3.4722,3.4744,3.4751,3.4723,3.4615,3.4517,3.4449,3.4411,3.4405,3.4416,3.4436,3.4455,3.4471,3.4482,3.4498,3.4515,3.4527,3.4539,3.4543,3.4536,3.4531,3.4538,3.4537,3.4538,3.4545,3.4561,3.4574,3.4588,3.4606,3.4618,3.4635,3.4657,3.4669,3.4695,3.4707,3.473,3.4737,3.4696,3.4585,3.4497,3.4434,3.4399,3.4387,3.4392,3.4411,3.4436,3.4453,3.4454,3.4476,3.4484,3.4496,3.4511,3.4514,3.4513,3.4508,3.4508,3.451,3.4515,3.4528,3.4537,3.455,3.4558,3.4588,3.4602,3.462,3.4637,3.465,3.467,3.4692,3.4697,3.4655,3.4546,3.446,3.4399,3.4367,3.4347,3.4356,3.4364,3.4383,3.4389,3.439,3.4403,3.4411,3.4435,3.4449,3.4465,3.4462,3.4458,3.4458,3.4457,3.4459,3.446,3.4471,3.4487,3.4492,3.4516,3.4538,3.4552,3.4569,3.4584,3.4608,3.4629,3.464,3.4632,3.4571,3.4466,3.4389,3.433,3.4298,3.4289,3.4299,3.432,3.4327,3.4333,3.4334,3.4339,3.4355,3.438,3.439,3.4395,3.4401,3.4394,3.4386,3.4384,3.4397,3.4403,3.4412,3.4425,3.4437,3.4455,3.4474,3.4493,3.4508,3.4519,3.4541,3.4558,3.4573,3.4587,3.4577,3.4494,3.4391,3.4318,3.4265,3.4241,3.4243,3.4257,3.4269,3.428,3.4281,3.4286,3.4302,3.4318,3.4335,3.4343,3.4347,3.4349,3.4351,3.4346,3.4345,3.4343,3.436,3.4378,3.4389,3.4404,3.4415,3.4433,3.4447,3.4456,3.4473,3.4492,3.4504,3.4528,3.4546,3.4549,3.4513,3.4416,3.4324,3.4257,3.4225,3.4215,3.4224,3.4239,3.4254,3.4261,3.4266,3.4278,3.4294,3.4304,3.432,3.4334,3.4337,3.4331,3.4326,3.4326,3.433,3.4328,3.4347,3.4359,3.438,3.4392,3.441,3.4422,3.4434,3.4455,3.4465,3.448,3.449,3.4509,3.4524,3.4507,3.4424,3.4332,3.427,3.4227,3.4206,3.4207,3.4232,3.4248,3.425,3.4264,3.4279,3.4288,3.43,3.4313,3.4327,3.4328,3.4323,3.4314,3.431,3.4318,3.4326,3.4337,3.4346,3.4366,3.4377,3.4391,3.4409,3.4428,3.4432,3.4454,3.4467,3.4492,3.4504,3.4521,3.4507,3.443,3.4333,3.4275,3.4225,3.4208,3.4214,3.422,3.4234,3.4243,3.425,3.4256,3.4264,3.4278,3.4291,3.4303,3.4312,3.4315,3.4306,3.4311,3.431,3.4312,,,46.0,,1.0
3.463,3.459,3.4582,3.458,3.4596,3.4627,3.4643,3.4655,3.466,3.4675,3.4696,3.4706,3.4726,3.4732,3.4727,3.4724,3.4718,3.4729,3.4731,3.474,3.4749,3.4769,3.4781,3.4803,3.4825,3.4836,3.4863,3.4883,3.4897,3.4892,3.4855,3.4749,3.4656,3.4597,3.4578,3.4571,3.4582,3.4592,3.4608,3.4618,3.4632,3.4642,3.4654,3.4682,3.4699,3.4708,3.4714,3.4706,3.4712,3.4708,3.4702,3.4717,3.4726,3.4738,3.4753,3.4765,3.4787,3.4813,3.4834,3.4855,3.4872,3.4885,3.4897,3.4885,3.4787,3.467,3.4606,3.4571,3.4558,3.4573,3.4579,3.4606,3.4622,3.4631,3.4637,3.465,3.4678,3.4697,3.4702,3.4701,3.4697,3.47,3.469,3.4695,3.4706,3.4709,3.4727,3.4732,3.4752,3.4766,3.4786,3.4804,3.482,3.484,3.4857,3.4872,3.4857,3.4781,3.4679,3.4612,3.4567,3.4551,3.4553,3.4573,3.4597,3.4614,3.4623,3.4633,3.4653,3.4668,3.4685,3.4691,3.4693,3.469,3.4683,3.4677,3.4675,3.4687,3.4693,3.471,3.4728,3.4741,3.4756,3.4767,3.4786,3.4811,3.4827,3.4839,3.4855,3.4825,3.4734,3.4632,3.4576,3.4539,3.4531,3.454,3.456,3.4573,3.4587,3.4588,3.4602,3.4619,3.463,3.4651,3.4666,3.4667,3.4664,3.4657,3.465,3.4654,3.4658,3.4672,3.4682,3.4692,3.4711,3.4729,3.474,3.4767,3.4785,3.4799,3.4818,3.484,3.4828,3.4752,3.4641,3.4577,3.4527,3.4507,3.4504,3.4513,3.4529,3.455,3.4554,3.4557,3.4568,3.4588,3.4607,3.4617,3.4623,3.4621,3.4621,3.4624,3.4622,3.462,3.4628,3.4638,3.465,3.4674,3.4687,3.4701,3.4725,3.474,3.4756,3.4772,3.4791,3.4806,3.4808,3.4781,3.4683,3.4584,3.4527,3.4487,3.4474,3.4479,3.4502,3.4515,3.4526,3.453,3.4538,3.4554,3.458,3.46,3.4612,3.4613,3.4609,3.4609,3.4607,3.4606,3.4613,3.4625,3.4638,3.4648,3.4667,3.4688,3.4707,3.4724,3.4737,3.475,3.477,3.4799,3.4808,3.4827,3.4818,3.4744,3.4622,3.4548,3.4493,3.4472,3.4485,3.4499,3.4518,3.4535,3.4548,3.4559,3.4571,3.459,3.461,3.4625,3.4625,3.4621,3.4615,3.4617,3.4621,3.4625,3.4627,3.4647,3.4667,3.4683,3.4698,3.4715,3.4735,3.4756,3.477,3.479,3.4805,3.4823,3.4837,3.4831,3.4763,3.4633,3.4551,3.4501,3.4485,3.4494,3.4501,3.4531,3.4552,3.457,3.4583,3.4603,3.4621,3.4632,3.4641,3.4634,3.4631,3.4632,3.4634,3.4633,3.4639,3.4655,3.4672,3.4689,3.4706,3.4723,3.4745,3.4763,3.478,3.4803,3.4827,3.4846,,,47.0,,1.0
3.4531,3.45,3.4498,3.4519,3.4543,3.4565,3.4586,3.4603,3.4622,3.4645,3.4665,3.4682,3.4688,3.4691,3.4696,3.4681,3.4683,3.4684,3.4701,3.4712,3.4727,3.4748,3.4766,3.4796,3.4825,3.4845,3.4868,3.4887,3.4915,3.4943,3.4955,3.4931,3.4809,3.4649,3.4577,3.4539,3.4524,3.4536,3.4569,3.4601,3.4632,3.4658,3.4696,3.4724,3.4746,3.477,3.4774,3.4766,3.4753,3.4744,3.4747,3.475,3.4759,3.4771,3.4788,3.4813,3.4845,3.4864,3.4892,3.4919,3.4946,3.4966,3.4998,3.5014,3.5017,3.493,3.475,3.4621,3.4572,3.4554,3.4561,3.4581,3.4617,3.4648,3.4692,3.4716,3.4754,3.4774,3.4791,3.4804,3.4797,3.4791,3.4776,3.4763,3.4766,3.4777,3.4798,3.4822,3.4839,3.4863,3.4889,3.4912,3.4944,3.4966,3.4991,3.5012,3.502,3.4964,3.4802,3.4653,3.4596,3.456,3.4562,3.458,3.4604,3.463,3.4659,3.4682,3.4701,3.4718,3.4741,3.4764,3.4765,3.4764,3.4759,3.4761,3.4759,3.4761,3.4772,3.4781,3.4795,3.482,3.4848,3.4874,3.4904,3.4929,3.4951,3.4978,3.4985,3.4925,3.4779,3.4643,3.458,3.4547,3.4537,3.4557,3.4575,3.4595,3.4617,3.4639,3.4657,3.4676,3.4695,3.4717,3.4728,3.4721,3.4724,3.4717,3.471,3.4711,3.4719,3.473,3.4755,3.4768,3.4791,3.4822,3.4847,3.4872,3.4895,3.491,3.4923,3.4915,3.4817,3.4661,3.4572,3.4522,3.4503,3.4511,3.4519,3.4548,3.4565,3.4583,3.4589,3.4613,3.463,3.465,3.466,3.4664,3.4664,3.4661,3.4659,3.466,3.466,3.4673,3.4682,3.4702,3.4729,3.4752,3.4772,3.4789,3.4819,3.4836,3.486,3.4869,3.4866,3.4802,3.4658,3.4553,3.4498,3.4467,3.4459,3.4477,3.4497,3.4514,3.4523,3.4533,3.4555,3.4581,3.4597,3.4605,3.4614,3.461,3.4606,3.4596,3.4603,3.461,3.462,3.4627,3.4647,3.4671,3.4685,3.4711,3.4728,3.4748,3.4763,3.479,3.481,3.4822,3.4809,3.4723,3.4586,3.4495,3.4449,3.4426,3.442,3.4436,3.4455,3.4472,3.4493,3.4503,3.452,3.4534,3.4553,3.4566,3.4563,3.4554,3.4557,3.4545,3.4543,3.4554,3.4573,3.459,3.4598,3.4623,3.4642,3.4655,3.4671,3.4686,3.471,3.4732,3.475,3.4754,3.4717,3.4593,3.4478,3.4413,3.4378,3.4367,3.4367,3.4391,3.4415,3.4426,3.4436,3.4444,3.446,3.4488,3.4501,3.4507,3.4503,3.4497,3.4498,3.45,3.4502,3.4511,3.4529,3.4544,3.4561,3.4578,3.4593,3.4614,3.4632,3.4654,3.4677,3.47,3.4711,3.471,3.4634,3.4514,3.4411,3.4349,,,48.0,,1.0
3.4565,3.442,3.4318,3.4268,3.4248,3.4242,3.4251,3.4262,3.4285,3.4289,3.4301,3.4315,3.4329,3.435,3.4369,3.4387,3.4384,3.438,3.437,3.4371,3.4384,3.4393,3.4405,3.4426,3.445,3.4471,3.4493,3.4506,3.4519,3.4539,3.4553,3.4573,3.4587,3.4609,3.4627,3.4642,3.4656,3.4631,3.4504,3.4377,3.4312,3.4284,3.4272,3.4281,3.4299,3.4332,3.4353,3.436,3.4383,3.4398,3.4418,3.443,3.444,3.4444,3.4435,3.443,3.4428,3.4437,3.444,3.4465,3.4496,3.4513,3.4536,3.4546,3.4569,3.4587,3.4605,3.462,3.4642,3.4666,3.4672,3.4673,3.4619,3.4491,3.4382,3.4337,3.4318,3.4321,3.4333,3.4355,3.4383,3.4408,3.4418,3.443,3.4447,3.447,3.4486,3.4499,3.4493,3.4486,3.4479,3.4484,3.449,3.4506,3.4522,3.4545,3.4564,3.459,3.4612,3.4626,3.4649,3.4678,3.4702,3.4724,3.4741,3.4729,3.4639,3.449,3.4409,3.4373,3.4358,3.4362,3.4375,3.4403,3.442,3.4439,3.4443,3.4457,3.4478,3.4508,3.4525,3.453,3.4531,3.4527,3.4529,3.4527,3.4535,3.4543,3.4558,3.4576,3.4592,3.4613,3.464,3.4664,3.4681,3.4698,3.4723,3.4742,3.4758,3.4767,3.4692,3.4543,3.4457,3.4414,3.4398,3.4397,3.4415,3.4436,3.446,3.447,3.4475,3.4485,3.4509,3.4536,3.4552,3.4559,3.456,3.4565,3.4557,3.4554,3.4554,3.4572,3.4586,3.4593,3.4619,3.4635,3.4649,3.4674,3.47,3.4723,3.4734,3.4759,3.4781,3.4774,3.4712,3.4584,3.4504,3.4469,3.445,3.4454,3.4471,3.4494,3.4511,3.4522,3.4539,3.4548,3.4556,3.4585,3.4599,3.4601,3.4601,3.4599,3.4598,3.4596,3.4602,3.4615,3.462,3.464,3.4653,3.4671,3.4683,3.4704,3.4718,3.4736,3.4752,3.4769,3.4782,3.4778,3.4714,3.4616,3.4557,3.4526,3.4511,3.4524,3.4548,3.4562,3.459,3.4594,3.4603,3.4617,3.4634,3.4653,3.4659,3.4656,3.4645,3.4646,3.4643,3.4651,3.4663,3.467,3.4682,3.4687,3.47,3.472,3.4741,3.4751,3.4761,3.478,3.4797,3.4806,3.4806,3.4766,3.4688,3.4624,3.4584,3.4575,3.4583,3.4595,3.4608,3.462,3.463,3.4648,3.4652,3.466,3.4674,3.4682,3.4692,3.4689,3.4695,3.4698,3.4698,3.4702,3.4702,3.4715,3.4728,3.4739,3.4752,3.4771,3.4789,3.4801,3.4816,3.4827,3.484,3.4849,3.4818,3.4739,3.4678,3.4633,3.461,3.4606,3.462,3.4643,3.4649,3.4653,3.4663,3.4664,3.4677,3.4685,3.4706,3.4717,3.4718,3.4726,3.4727,3.4723,3.4724,3.4727,3.4737,3.4754,3.4767,3.4776,,,49.0,,1.0
3.4743,3.4765,3.4778,3.4778,3.4786,3.4777,3.4773,3.4773,3.4774,3.4784,3.4799,3.481,3.4822,3.4835,3.4851,3.4871,3.4876,3.4883,3.4901,3.4907,3.4924,3.4946,3.4952,3.4957,3.4938,3.4855,3.4771,3.472,3.4692,3.4692,3.4708,3.4724,3.4739,3.4752,3.4761,3.4778,3.4787,3.4793,3.4808,3.4822,3.4821,3.4815,3.481,3.4811,3.481,3.4813,3.4827,3.4845,3.4857,3.487,3.4879,3.4896,3.4914,3.4921,3.4946,3.4961,3.4971,3.4987,3.4978,3.4941,3.4848,3.4772,3.4727,3.4712,3.4711,3.472,3.4745,3.477,3.4787,3.4795,3.4803,3.4813,3.4833,3.4833,3.4836,3.4833,3.4831,3.4827,3.4826,3.4839,3.4847,3.4858,3.487,3.489,3.4904,3.4913,3.4931,3.4946,3.4964,3.4984,3.4996,3.5003,3.4942,3.4846,3.4771,3.4724,3.47,3.4707,3.4717,3.4736,3.4753,3.476,3.477,3.478,3.4793,3.4811,3.4819,3.4831,3.4831,3.4823,3.4818,3.4823,3.4821,3.483,3.4836,3.4854,3.4876,3.4892,3.4907,3.4924,3.4935,3.4958,3.4972,3.4985,3.4975,3.4908,3.4812,3.4737,3.4706,3.4683,3.4693,3.4702,3.4714,3.4722,3.4735,3.4738,3.4752,3.4762,3.4782,3.4805,3.4809,3.4801,3.4807,3.4801,3.4796,3.4793,3.4803,3.4821,3.4833,3.4842,3.4866,3.4878,3.4895,3.4911,3.4924,3.4946,3.4962,3.4976,3.4947,3.4846,3.4752,3.4703,3.4664,3.4657,3.4663,3.4674,3.4699,3.4711,3.4717,3.4718,3.4728,3.4745,3.4767,3.4778,3.478,3.4777,3.4774,3.4771,3.4766,3.4775,3.4779,3.4795,3.4803,3.4821,3.4845,3.486,3.4879,3.4892,3.491,3.4933,3.4947,3.4947,3.4905,3.4798,3.4715,3.4662,3.4638,3.463,3.464,3.4653,3.4679,3.4687,3.47,3.4711,3.4725,3.4733,3.4754,3.4754,3.475,3.4741,3.4738,3.4741,3.4743,3.4747,3.4756,3.4774,3.4784,3.4805,3.482,3.4835,3.485,3.4861,3.4881,3.4897,3.4905,3.4891,3.4806,3.4713,3.4649,3.4608,3.4594,3.4594,3.4611,3.4631,3.4647,3.4653,3.4662,3.4678,3.4694,3.471,3.4712,3.4709,3.4704,3.4701,3.47,3.4694,3.4708,3.4722,3.4734,3.4741,3.4755,3.4776,3.4791,3.4805,3.4818,3.4842,3.4865,3.4871,3.4839,3.4751,3.4655,3.4594,3.455,3.4529,3.4537,3.4556,3.4569,3.4581,3.4585,3.459,3.4601,3.4618,3.4629,3.4628,3.4633,3.4631,3.4624,3.4622,3.462,3.4626,3.4645,3.4653,3.4672,3.4693,3.4702,3.4715,3.4731,3.4745,3.4758,3.4776,3.4798,3.4801,3.4769,3.467,3.4582,3.4528,3.4486,3.4465,3.4466,3.448,,,50.0,,1.0
3.589,3.5903,3.5906,3.5899,3.5907,3.5911,3.5929,3.594,3.5955,3.5966,3.5974,3.5979,3.5985,3.5987,3.5933,3.5716,3.5575,3.5545,3.5542,3.555,3.5584,3.5613,3.565,3.5689,3.5729,3.5787,3.583,3.5862,3.5883,3.5887,3.5896,3.5892,3.5892,3.5894,3.5896,3.5908,3.5928,3.5943,3.596,3.5977,3.5982,3.5985,3.5987,3.5994,3.5967,3.5767,3.5588,3.5543,3.5541,3.5558,3.5582,3.5608,3.565,3.5685,3.5727,3.5772,3.5822,3.5866,3.5878,3.5888,3.5895,3.5898,3.5892,3.589,3.5898,3.5905,3.5916,3.5938,3.5952,3.5976,3.5978,3.5984,3.599,3.6001,3.5997,3.5903,3.5671,3.5561,3.5539,3.5539,3.556,3.5595,3.5641,3.5684,3.5734,3.5783,3.5825,3.5862,3.5882,3.5894,3.5889,3.5881,3.5872,3.5876,3.5879,3.5889,3.5903,3.5928,3.5946,3.5958,3.5966,3.598,3.5988,3.5994,3.5994,3.5976,3.5783,3.5582,3.5533,3.5523,3.554,3.5564,3.5597,3.5631,3.5669,3.5711,3.5748,3.5798,3.5841,3.5866,3.5873,3.587,3.5857,3.5856,3.5861,3.5863,3.5876,3.589,3.5914,3.5934,3.5952,3.5974,3.5979,3.5983,3.5993,3.5998,3.5953,3.5722,3.5565,3.5526,3.5523,3.5539,3.5555,3.558,3.5604,3.5633,3.5657,3.5693,3.5739,3.5787,3.5815,3.584,3.5844,3.5831,3.5828,3.583,3.5833,3.5838,3.5853,3.5874,3.5902,3.5927,3.5942,3.5964,3.5972,3.5982,3.5985,3.5988,3.595,3.5726,3.5565,3.5522,3.5512,3.552,3.5547,3.5573,3.5597,3.5622,3.5658,3.5693,3.5734,3.5776,3.5808,3.5833,3.5839,3.5829,3.5824,3.5819,3.582,3.5831,3.5854,3.5879,3.5896,3.5917,3.5938,3.5951,3.5965,3.5979,3.5986,3.5986,3.5995,3.5954,3.5734,3.5558,3.5523,3.552,3.5526,3.5543,3.5576,3.5608,3.5639,3.5669,3.5708,3.5752,3.5801,3.5831,3.5847,3.5848,3.5839,3.5826,3.5828,3.5838,3.5848,3.5865,3.5889,3.5914,3.5933,3.5946,3.5956,3.5966,3.5977,3.5988,3.599,3.5994,3.5995,3.5968,3.5758,3.5569,3.5524,3.5519,3.5533,3.5552,3.5583,3.5622,3.5665,3.5705,3.575,3.5797,3.5835,3.586,3.5877,3.5873,3.5862,3.5847,3.5844,3.5851,3.5872,3.5892,3.5909,3.592,3.594,3.5959,3.5964,3.5978,3.5984,3.5993,3.5996,3.5996,3.5995,3.5892,3.565,3.5544,3.552,3.5524,3.5541,3.5573,3.5615,3.5661,3.5708,3.5754,3.5805,3.5849,3.5871,3.5886,3.5888,3.5886,3.5884,3.5873,3.588,3.5894,3.5913,3.5924,3.5938,3.5953,3.5973,3.598,3.5986,3.5986,3.599,3.6003,,,51.0,,1.0
3.5518,3.553,3.5561,3.56,3.5634,3.567,3.5708,3.5756,3.5812,3.584,3.5857,3.5869,3.5874,3.5865,3.5853,3.5847,3.5857,3.5867,3.5885,3.5906,3.5929,3.5944,3.5955,3.5962,3.5973,3.5985,3.5992,3.5993,3.5996,3.5908,3.5659,3.5531,3.5513,3.5515,3.5524,3.5549,3.5594,3.5626,3.567,3.5716,3.5763,3.5801,3.5834,3.5852,3.5845,3.5832,3.5821,3.5817,3.5817,3.583,3.585,3.5873,3.5891,3.5919,3.5933,3.5949,3.5961,3.5967,3.5977,3.5988,3.5982,3.5906,3.5667,3.5531,3.5498,3.5488,3.5499,3.5523,3.5557,3.5581,3.561,3.5633,3.5665,3.57,3.5746,3.5783,3.5796,3.5801,3.579,3.5782,3.5778,3.5787,3.5798,3.5818,3.5847,3.5869,3.5898,3.592,3.5935,3.5946,3.5958,3.5963,3.597,3.5952,3.5792,3.5575,3.55,3.5476,3.5478,3.5497,3.5516,3.5534,3.5553,3.5575,3.5604,3.5639,3.569,3.5736,3.5762,3.5771,3.5767,3.5757,3.5745,3.574,3.575,3.5772,3.5799,3.5827,3.5851,3.5873,3.5893,3.5914,3.5929,3.5939,3.5944,3.5952,3.5962,3.5937,3.5744,3.5544,3.5484,3.5463,3.5471,3.5479,3.5502,3.5524,3.5557,3.5578,3.5601,3.5639,3.5686,3.5732,3.5752,3.5751,3.575,3.5736,3.5726,3.5733,3.5747,3.5766,3.5788,3.5817,3.5842,3.586,3.5881,3.5906,3.5919,3.5929,3.5934,3.5941,3.5952,3.5961,3.5928,3.5723,3.5529,3.5476,3.5462,3.5464,3.5479,3.5506,3.5531,3.5562,3.5592,3.5621,3.5669,3.5703,3.574,3.5753,3.5745,3.574,3.5724,3.5716,3.5724,3.5736,3.5761,3.5783,3.5813,3.5835,3.5855,3.5872,3.5891,3.5904,3.5922,3.5924,3.5938,3.5936,3.5933,3.581,3.5574,3.5479,3.5452,3.5457,3.5468,3.5494,3.5527,3.556,3.559,3.562,3.5668,3.5708,3.5741,3.5756,3.5764,3.575,3.5738,3.5726,3.5734,3.5743,3.5773,3.5792,3.5827,3.5848,3.5871,3.5882,3.5899,3.5915,3.5923,3.5933,3.5934,3.5944,3.5945,3.5878,3.5633,3.5485,3.5453,3.5445,3.545,3.5469,3.5488,3.5514,3.5542,3.5565,3.5594,3.5631,3.5683,3.5717,3.5736,3.5743,3.5734,3.5717,3.5711,3.5723,3.573,3.5754,3.5777,3.5802,3.5832,3.5857,3.5876,3.5885,3.5902,3.5914,3.5921,3.5925,3.5925,3.5911,3.5738,3.5517,3.5452,3.5434,3.5441,3.5453,3.5471,3.5495,3.5524,3.5544,3.5579,3.5617,3.5665,3.5704,3.5728,3.5737,3.5734,3.5724,3.5719,3.5712,3.5726,3.575,3.5776,3.58,3.5823,3.5851,3.5867,3.5876,3.5888,3.5897,3.591,3.5921,3.5927,3.593,,,52.0,,1.0
3.5578,3.562,3.565,3.5685,3.5701,3.57,3.5685,3.5689,3.5691,3.5692,3.5704,3.5723,3.5753,3.5775,3.58,3.5826,3.5847,3.5865,3.5872,3.5878,3.5889,3.5873,3.5703,3.5494,3.5422,3.54,3.5391,3.5412,3.5432,3.5451,3.5486,3.5506,3.5528,3.5561,3.5599,3.5644,3.5669,3.5684,3.5679,3.567,3.5667,3.5662,3.5668,3.5686,3.5715,3.574,3.5765,3.5798,3.5825,3.5841,3.5856,3.5866,3.5859,3.5759,3.554,3.5422,3.5392,3.5381,3.5393,3.5408,3.5438,3.5462,3.5489,3.5515,3.5546,3.5593,3.5632,3.5667,3.5684,3.568,3.5667,3.5651,3.564,3.5652,3.5668,3.569,3.5717,3.5748,3.5787,3.5804,3.5826,3.5842,3.5839,3.5763,3.5533,3.5409,3.5369,3.5361,3.5376,3.5393,3.5417,3.5448,3.5474,3.5502,3.5538,3.5588,3.5634,3.5658,3.5664,3.5662,3.5654,3.5644,3.5637,3.5644,3.5653,3.5681,3.5717,3.574,3.5777,3.5796,3.581,3.5819,3.5831,3.5827,3.5685,3.5463,3.5378,3.5353,3.5345,3.5357,3.5385,3.542,3.5445,3.5474,3.5518,3.5564,3.5607,3.5644,3.5663,3.5659,3.5645,3.5633,3.5629,3.5629,3.5635,3.5649,3.5671,3.5709,3.5733,3.5768,3.5792,3.5804,3.5815,3.5821,3.5826,3.5705,3.5474,3.5363,3.534,3.5341,3.5351,3.5372,3.5409,3.5447,3.5479,3.5524,3.5576,3.5614,3.5639,3.5648,3.5652,3.5628,3.5623,3.5621,3.5623,3.5631,3.5647,3.5678,3.5705,3.5732,3.5753,3.577,3.5794,3.5808,3.5814,3.5812,3.5729,3.5482,3.5353,3.5317,3.5316,3.533,3.535,3.5375,3.5411,3.5447,3.5476,3.5513,3.5554,3.5594,3.5623,3.5623,3.563,3.5614,3.5606,3.5601,3.5612,3.5634,3.5652,3.568,3.5715,3.5735,3.5758,3.5771,3.5788,3.58,3.5804,3.5796,3.5642,3.5415,3.5333,3.5301,3.53,3.5317,3.5338,3.5367,3.5396,3.5429,3.5454,3.5497,3.5537,3.5576,3.5604,3.5607,3.5602,3.5593,3.5588,3.5586,3.5604,3.5623,3.5642,3.5672,3.5691,3.5721,3.5743,3.5761,3.5767,3.5784,3.5798,3.5804,3.5768,3.5557,3.5365,3.5309,3.5292,3.5296,3.5312,3.5341,3.5379,3.5409,3.5437,3.5468,3.5514,3.5565,3.5598,3.5618,3.5621,3.5615,3.5607,3.5599,3.5602,3.5614,3.5634,3.5668,3.5684,3.5711,3.5735,3.5751,3.576,3.5778,3.5782,3.579,3.5793,3.5799,3.5747,3.5512,3.5345,3.53,3.5292,3.5303,3.5327,3.5359,3.5398,3.5438,3.5486,3.553,3.5579,3.5613,3.5635,3.5651,3.5639,3.5639,3.5621,3.5624,3.5632,3.5646,3.566,3.5689,3.5708,3.5731,,,53.0,,1.0
3.5615,3.5608,3.5603,3.5606,3.5612,3.5632,3.5655,3.5673,3.5692,3.572,3.5734,3.5747,3.5756,3.5766,3.5782,3.5788,3.5772,3.561,3.5388,3.5299,3.5279,3.5282,3.5291,3.5327,3.5354,3.539,3.5425,3.547,3.5516,3.5566,3.5598,3.5605,3.5609,3.5598,3.559,3.5587,3.5592,3.5597,3.5614,3.5631,3.5661,3.569,3.5704,3.5719,3.5746,3.5757,3.5765,3.5768,3.5757,3.5646,3.5419,3.5293,3.5271,3.5266,3.5283,3.5307,3.5346,3.5392,3.5425,3.5473,3.5521,3.5563,3.5588,3.5601,3.5604,3.5586,3.5572,3.5569,3.5581,3.5595,3.5615,3.5635,3.5656,3.5685,3.57,3.5727,3.5735,3.5745,3.5753,3.5761,3.5741,3.5555,3.5343,3.5266,3.525,3.5257,3.5267,3.5286,3.5314,3.5338,3.5361,3.5393,3.5431,3.548,3.5521,3.5537,3.5545,3.5529,3.552,3.5517,3.5517,3.5525,3.5546,3.5564,3.5596,3.5632,3.5653,3.5682,3.5704,3.5719,3.5721,3.5675,3.5449,3.5291,3.5241,3.5224,3.5231,3.5245,3.5263,3.5286,3.5315,3.5333,3.5367,3.5414,3.5459,3.5489,3.5505,3.5503,3.5497,3.5478,3.5474,3.5472,3.5484,3.5514,3.5546,3.5575,3.5609,3.564,3.5662,3.5673,3.5669,3.5553,3.534,3.5233,3.5202,3.5196,3.5203,3.5217,3.5243,3.5265,3.5289,3.532,3.5357,3.5402,3.544,3.546,3.5471,3.5472,3.5461,3.5447,3.5438,3.5449,3.547,3.5501,3.5533,3.5565,3.5592,3.562,3.565,3.5663,3.5646,3.5512,3.5307,3.5215,3.5184,3.5171,3.5182,3.52,3.5221,3.5245,3.5272,3.5301,3.534,3.5382,3.5417,3.5438,3.5448,3.5446,3.5435,3.5418,3.5424,3.5426,3.5446,3.5473,3.5498,3.554,3.5573,3.5594,3.5616,3.564,3.5654,3.5638,3.5492,3.5279,3.5196,3.5166,3.5154,3.5167,3.5196,3.5216,3.5246,3.5271,3.5316,3.5356,3.5396,3.5424,3.5442,3.5445,3.543,3.5417,3.5407,3.541,3.5426,3.5431,3.5463,3.5494,3.5527,3.5556,3.5585,3.5603,3.5628,3.5641,3.564,3.5573,3.535,3.5211,3.5161,3.5144,3.5147,3.5168,3.5201,3.5234,3.5266,3.53,3.5342,3.5381,3.5415,3.5436,3.5443,3.5431,3.5415,3.5412,3.5411,3.5426,3.5441,3.5462,3.549,3.5527,3.5548,3.5583,3.5599,3.5622,3.5635,3.5642,3.5625,3.5469,3.5254,3.5167,3.5136,3.513,3.5138,3.5162,3.5192,3.522,3.524,3.527,3.5305,3.5352,3.5391,3.5414,3.5419,3.5409,3.5404,3.5404,3.5402,3.541,3.543,3.5461,3.5488,3.5514,3.5541,3.5571,3.5592,3.5607,3.562,3.563,3.563,3.5572,3.5339,3.5178,,,54.0,,1.0
3.5609,3.5402,3.5204,3.5139,3.5126,3.5134,3.5157,3.5196,3.5252,3.5302,3.5351,3.5405,3.5453,3.5488,3.5504,3.5504,3.5492,3.5482,3.5471,3.5467,3.5482,3.5495,3.5519,3.5541,3.5559,3.5573,3.5597,3.5605,3.562,3.563,3.5632,3.5645,3.5635,3.547,3.5245,3.5146,3.5124,3.5133,3.5148,3.519,3.524,3.5281,3.5331,3.5374,3.5423,3.5457,3.5482,3.5499,3.5502,3.5495,3.5489,3.5486,3.55,3.5512,3.5534,3.5561,3.5581,3.5598,3.5609,3.5615,3.5629,3.5639,3.5648,3.5657,3.5606,3.5383,3.5194,3.5131,3.5118,3.5122,3.5142,3.5169,3.5209,3.5236,3.5263,3.5295,3.5343,3.5393,3.5432,3.5454,3.5458,3.5457,3.5449,3.5446,3.5446,3.5453,3.5472,3.5498,3.5521,3.5552,3.5579,3.5594,3.5609,3.5621,3.5624,3.5608,3.5446,3.5231,3.514,3.5111,3.5108,3.5113,3.5135,3.5163,3.5196,3.5222,3.5252,3.5293,3.5345,3.5391,3.5414,3.5423,3.5417,3.5412,3.5405,3.5407,3.5414,3.5428,3.5449,3.5474,3.5508,3.5538,3.5556,3.557,3.5591,3.5608,3.561,3.5595,3.5452,3.5229,3.5129,3.51,3.5094,3.5111,3.5134,3.5155,3.5179,3.5205,3.5241,3.5286,3.5335,3.5364,3.5388,3.5388,3.5389,3.5378,3.5368,3.5365,3.5372,3.5388,3.5416,3.5438,3.5477,3.5499,3.5521,3.5538,3.5562,3.558,3.5583,3.5583,3.5478,3.5248,3.5123,3.5087,3.5075,3.5087,3.5109,3.5131,3.5169,3.5194,3.5226,3.527,3.531,3.534,3.5356,3.5361,3.5346,3.5329,3.5319,3.532,3.5339,3.5355,3.5377,3.54,3.5441,3.5466,3.5489,3.551,3.5538,3.555,3.5571,3.5555,3.5445,3.5224,3.5109,3.507,3.5054,3.5056,3.508,3.5107,3.5131,3.5147,3.517,3.5202,3.525,3.5281,3.5308,3.5316,3.5314,3.5299,3.5297,3.5292,3.5306,3.5326,3.5346,3.5364,3.5406,3.543,3.5456,3.548,3.55,3.5529,3.5534,3.5545,3.5534,3.5371,3.5155,3.507,3.5047,3.503,3.5041,3.5055,3.507,3.5087,3.5097,3.5126,3.5155,3.5194,3.5226,3.5262,3.5273,3.527,3.5264,3.5248,3.5249,3.5251,3.5272,3.529,3.5323,3.5344,3.538,3.5408,3.5433,3.545,3.5476,3.5501,3.5509,3.5521,3.549,3.5299,3.5107,3.5044,3.5018,3.5019,3.5024,3.5037,3.5055,3.5069,3.5088,3.5112,3.5145,3.5189,3.5225,3.5247,3.525,3.5248,3.5236,3.5225,3.5222,3.5227,3.5248,3.528,3.5303,3.5325,3.5359,3.5381,3.5406,3.5437,3.5465,3.5483,3.5491,3.5507,3.5515,3.5445,3.5225,3.5066,3.5021,3.4995,3.5001,3.5015,,,55.0,,1.0
3.4909,3.4919,3.4918,3.4909,3.4903,3.4896,3.4909,3.4923,3.4937,3.4958,3.4982,3.5005,3.5022,3.5038,3.5049,3.5067,3.508,3.5099,3.5119,3.5136,3.5144,3.5128,3.5036,3.4918,3.4801,3.4719,3.4691,3.4688,3.4704,3.4732,3.4762,3.4787,3.4811,3.4847,3.4876,3.4897,3.4914,3.4911,3.4909,3.4903,3.4912,3.4919,3.4929,3.4943,3.4962,3.4987,3.5017,3.5032,3.5054,3.5069,3.5081,3.5099,3.5117,3.5141,3.5151,3.5163,3.5151,3.5082,3.4944,3.4808,3.4729,3.4692,3.4689,3.4696,3.4714,3.4737,3.4766,3.4788,3.4816,3.4849,3.4879,3.4895,3.4905,3.4904,3.4903,3.4897,3.4905,3.4917,3.4931,3.4954,3.4975,3.5001,3.5022,3.5041,3.5066,3.5078,3.5094,3.5114,3.5134,3.5146,3.5158,3.5167,3.5167,3.5092,3.496,3.4825,3.4739,3.4711,3.4707,3.472,3.474,3.4764,3.4795,3.4819,3.4854,3.4887,3.4907,3.4923,3.4927,3.4925,3.492,3.4916,3.4927,3.494,3.4954,3.497,3.4997,3.5015,3.5032,3.5059,3.5078,3.5093,3.5102,3.5123,3.5138,3.5152,3.5164,3.5169,3.5163,3.5074,3.494,3.482,3.4743,3.4717,3.4716,3.4736,3.4761,3.4793,3.4818,3.4855,3.4891,3.4918,3.4941,3.4944,3.4941,3.4939,3.4933,3.4933,3.4944,3.4963,3.4979,3.4998,3.5015,3.5038,3.5064,3.5084,3.5096,3.5111,3.5123,3.5141,3.5155,3.5175,3.5189,3.5197,3.5164,3.504,3.491,3.4789,3.4729,3.4713,3.472,3.4746,3.4765,3.4787,3.4806,3.4834,3.4866,3.4898,3.4922,3.493,3.494,3.4936,3.4932,3.4932,3.4941,3.4958,3.4967,3.4998,3.5019,3.5042,3.5056,3.5075,3.5101,3.5118,3.5131,3.5142,3.5155,3.5173,3.5188,3.5196,3.5209,3.5181,3.5056,3.4916,3.4802,3.4739,3.4724,3.4723,3.4744,3.4767,3.4793,3.4817,3.4841,3.4869,3.4903,3.4925,3.4934,3.4937,3.4939,3.4934,3.4936,3.4948,3.4958,3.4974,3.5,3.5017,3.5041,3.5066,3.5089,3.511,3.512,3.513,3.5149,3.516,3.5178,3.5182,3.52,3.5218,3.5211,3.514,3.5002,3.4874,3.4778,3.4742,3.4742,3.4756,3.4776,3.4804,3.4835,3.4861,3.4891,3.4921,3.4946,3.4965,3.4963,3.4957,3.4959,3.4956,3.4959,3.4967,3.4989,3.5015,3.5031,3.5056,3.5077,3.5096,3.5112,3.5132,3.5142,3.5158,3.5163,3.519,3.5197,3.5205,3.5215,3.5175,3.505,3.4925,3.4821,3.4768,3.476,3.4772,3.479,3.4816,3.4849,3.4884,3.4921,3.4958,3.4978,3.4987,3.4987,3.4988,3.4986,3.498,3.4986,3.4999,3.502,3.5033,3.5053,3.5075,,,56.0,,1.0
3.2575,3.2593,3.2605,3.2604,3.2599,3.2597,3.2594,3.2595,3.2599,3.2618,3.2632,3.2647,3.2667,3.2684,3.27,3.2717,3.2733,3.2758,3.2767,3.2793,3.2809,3.2825,3.2835,3.2817,3.272,3.2604,3.2533,3.2481,3.244,3.2421,3.2417,3.2428,3.2438,3.2459,3.2482,3.2501,3.2526,3.2539,3.2559,3.2569,3.2569,3.2561,3.2555,3.2557,3.257,3.2575,3.2592,3.2608,3.2625,3.264,3.2656,3.2679,3.2697,3.2709,3.2724,3.2743,3.2765,3.2782,3.2798,3.2793,3.2754,3.2659,3.2565,3.2491,3.244,3.2416,3.2396,3.2399,3.2407,3.2426,3.2445,3.2463,3.2481,3.2501,3.2527,3.2537,3.2539,3.2539,3.2533,3.2529,3.2534,3.2539,3.2552,3.2567,3.2586,3.2603,3.262,3.2639,3.2662,3.2676,3.2684,3.2705,3.2725,3.2737,3.2751,3.2767,3.2777,3.2769,3.2691,3.2585,3.2508,3.2451,3.2412,3.2391,3.2382,3.2396,3.2408,3.2423,3.2438,3.2459,3.249,3.2511,3.2526,3.2525,3.2526,3.2525,3.2521,3.2518,3.2523,3.2534,3.2545,3.2559,3.258,3.2595,3.2611,3.2623,3.2638,3.2652,3.2674,3.2688,3.2704,3.272,3.2734,3.2751,3.2745,3.2676,3.259,3.251,3.2449,3.2405,3.238,3.2383,3.2391,3.2402,3.2418,3.2444,3.247,3.2502,3.2517,3.2523,3.252,3.252,3.2512,3.251,3.2509,3.2512,3.2532,3.254,3.2555,3.2576,3.2601,3.262,3.263,3.2644,3.2657,3.2678,3.269,3.2707,3.2723,3.2739,3.2749,3.272,3.2634,3.2541,3.2464,3.2403,3.2365,3.2356,3.2353,3.2351,3.2361,3.2375,3.2398,3.2421,3.2442,3.2465,3.2476,3.2478,3.2473,3.2477,3.2479,3.248,3.248,3.2493,3.2505,3.2519,3.2539,3.2563,3.258,3.2599,3.2609,3.2626,3.265,3.2662,3.2672,3.2693,3.2707,3.2717,3.2731,3.2734,3.2669,3.2561,3.2471,3.2411,3.2364,3.2333,3.2323,3.2331,3.234,3.2355,3.236,3.2385,3.2407,3.2425,3.2443,3.2456,3.246,3.2456,3.2451,3.2456,3.2459,3.2469,3.2475,3.2495,3.2516,3.2532,3.2545,3.2567,3.2588,3.2604,3.2622,3.2641,3.2652,3.2666,3.2679,3.2699,3.2713,3.2728,3.2734,3.2721,3.2631,3.2537,3.2453,3.2398,3.2357,3.2334,3.2327,3.2342,3.2356,3.2369,3.2385,3.2405,3.2432,3.2451,3.2466,3.2476,3.2471,3.2472,3.2474,3.2475,3.2479,3.2485,3.2498,3.2522,3.2536,3.2561,3.2578,3.2598,3.2613,3.2627,3.2644,3.2659,3.2663,3.2683,3.2695,3.2708,3.2728,3.2748,3.2748,3.2698,3.2603,3.2512,3.2445,3.2397,3.2369,3.2361,3.2374,3.2383,3.2405,3.2424,,,57.0,,1.0
