0,1,2,3,4,5,6,7,8,9,10,11,12,13,14,15,16,17,18,19,20,21,22,23,24,25,26,27,28,29,30,31,32,33,34,35,36,37,38,39,40,41,42,43,44,45,46,47,48,49,50,51,52,53,54,55,56,57,58,59,60,61,62,63,64,65,66,67,68,69,70,71,72,73,74,75,76,77,78,79,80,81,82,83,84,85,86,87,88,89,90,91,92,93,94,95,96,97,98,99,100,101,102,103,104,105,106,107,108,109,110,111,112,113,114,115,116,117,118,119,120,121,122,123,124,125,126,127,128,129,130,131,132,133,134,135,136,137,138,139,140,141,142,143,144,145,146,147,148,149,150,151,152,153,154,155,156,157,158,159,160,161,162,163,164,165,166,167,168,169,170,171,172,173,174,175,176,177,178,179,180,181,182,183,184,185,186,187,188,189,190,191,192,193,194,195,196,197,198,199,200,201,202,203,204,205,206,207,208,209,210,211,212,213,214,215,216,217,218,219,220,221,222,223,224,225,226,227,228,229,230,231,232,233,234,235,236,237,238,239,240,241,242,243,244,245,246,247,248,249,250,251,252,253,254,255,256,257,258,259,260,261,262,263,264,265,266,267,268,269,270,271,272,273,274,275,276,277,278,279,280,281,282,283,284,285,286,287,288,289,290,291,292,293,294,295,296,297,298,299,300,301,302,303,304,305,306,307,308,309,310,311,312,313,314,315,316,317,318,319,320,321,322,323,324,325,326,327,328,329,330,331,332,333,334,335,336,337,338,339,340,341,342,343,344,345,346,347,348,349,350,351,352,353,354,355,356,357,358,359,360,361,362,363,364,365,366,367,368,369,370,371,372,373,374,375,376,377,378,379,380,381,382,383,384,385,386,387,388,389,390,391,392,393,394,395,396,397,398,399,400,401,402,403,404,405,406,407,408,409,410,411,412,413,414,415,416,417,418,419,420,421,422,423,424,425,426,427,428,429,430,431,432,433,434,435,436,437,438,439,440,441,442,443,444,445,446,447,448,449,450,451,452,453,454,455,456,457,458,459,460,461,462,463,464,465,466,467,468,469,470,471,472,473,474,475,476,477,478,479,480,481,482,483,484,485,486,487,488,489,490,491,492,493,494,495,496,497,498,499,500,501,502,503,504,505,506,507,508,509,510,511,512,513,514,515,516,517,518,519,520,521,522,523,524,525,526,527,528,529,530,531,532,533,534,535,536,537,538,539,540,541,542,543,544,545,546,547,548,549,550,551,552,553,554,555,556,557,558,559,560,561,562,563,564,565,566,567,568,569,570,571,572,573,574,575,576,577,578,579,580,581,582,583,584,585,586,587,588,589,590,591,592,593,594,595,596,597,598,599,600,601,602,603,604,605,606,607,608,609,610,611,612,613,614,615,616,617,618,619,620,621,622,623,624,625,626,627,628,629,630,631,632,633,634,635,636,637,638,639,640,641,642,643,644,645,646,647,648,649,650,651,652,653,654,655,656,657,658,659,660,661,662,663,664,665,666,667,668,669,670,671,672,673,674,675,676,677,678,679,680,681,682,683,684,685,686,687,688,689,690,691,692,693,694,695,696,697,698,699,700,701,702,703,704,705,706,707,708,709,710,711,712,713,714,715,716,717,718,719,720,721,722,723,724,725,726,727,728,729,730,731,732,733,734,735,736,737,738,739,740,741,742,743,744,745,746,747,748,749,750,751,752,753,754,755,756,757,758,759,760,761,762,763,764,765,766,767,768,769,770,771,772,773,774,775,776,777,778,779,780,781,782,783,784,785,786,787,788,789,790,791,792,793,794,795,796,797,798,799,800,801,802,803,804,805,806,807,808,809,810,811,812,813,814,815,816,817,818,819,820,821,822,823,824,825,826,827,828,829,830,831,832,833,834,835,836,837,838,839,840,841,842,843,844,845,846,847,848,849,850,851,852,853,854,855,856,857,858,859,860,861,862,863,864,865,866,867,868,869,870,871,872,873,874,875,876,877,878,879,880,881,882,883,884,885,886,887,888,889,890,891,892,893,894,895,896,897,898,899,900,901,902,903,904,905,906,907,908,909,910,911,912,913,914,915,916,917,918,919,920,921,922,923,924,925,926,927,928,929,930,931,932,933,934,935,936,937,938,939,940,941,942,943,944,945,946,947,948,949,950,951,952,953,954,955,956,957,958,959,960,961,962,963,964,965,966,967,968,969,970,971,972,973,974,975,976,977,978,979,980,981,982,983,984,985,986,987,988,989,990,991,992,993,994,995,996,997,998,999,1000,1001,1002,1003,1004,1005,1006,1007,1008,1009,1010,1011,1012,1013,1014,1015,1016,1017,1018,1019,1020,1021,1022,1023,1024,1025,1026,1027,1028,1029,1030,1031,1032,1033,1034,1035,1036,1037,1038,1039,1040,1041,1042,1043,1044,1045,1046,1047,1048,1049,1050,1051,1052,1053,1054,1055,1056,1057,1058,1059,1060,1061,1062,1063,1064,1065,1066,1067,1068,1069,1070,1071,1072,1073,1074,1075,1076,1077,1078,1079,1080,1081,1082,1083,1084,1085,1086,1087,1088,1089,1090,1091,1092,1093,1094,1095,1096,1097,1098,1099,1100,1101,1102,1103,1104,1105,1106,1107,1108,1109,1110,1111,1112,1113,1114,1115,1116,1117,1118,1119,1120,1121,1122,1123,1124,1125,1126,1127,1128,1129,1130,1131,1132,1133,1134,1135,1136,1137,1138,1139,1140,1141,1142,1143,1144,1145,1146,1147,1148,1149,1150,1151,1152,1153,1154,1155,1156,1157,1158,1159,1160,1161,1162,1163,1164,1165,1166,1167,1168,1169,1170,1171,1172,1173,1174,1175,1176,1177,1178,1179,1180,1181,1182,1183,1184,1185,1186,1187,1188,1189,1190,1191,1192,1193,1194,1195,1196,1197,1198,1199,1200,1201,1202,1203,1204,1205,1206,1207,1208,1209,1210,1211,1212,1213,1214,1215,1216,1217,1218,1219,1220,1221,1222,1223,1224,1225,1226,1227,1228,1229,1230,1231,1232,1233,1234,1235,1236,1237,1238,1239,1240,1241,1242,1243,1244,1245,1246,1247,1248,1249,1250,1251,1252,1253,1254,1255,1256,1257,1258,1259,1260,1261,1262,1263,1264,1265,1266,1267,1268,1269,1270,1271,1272,1273,1274,1275,1276,1277,1278,1279,1280,1281,1282,1283,1284,1285,1286,1287,1288,1289,1290,1291,1292,1293,1294,1295,1296,1297,1298,1299,1300,1301,1302,1303,1304,1305,1306,1307,1308,1309,1310,1311,1312,1313,1314,1315,1316,1317,1318,1319,1320,1321,1322,1323,1324,1325,1326,1327,1328,1329,1330,1331,1332,1333,1334,1335,1336,1337,1338,1339,1340,1341,1342,1343,1344,1345,1346,1347,1348,1349,1350,1351,1352,1353,1354,1355,1356,1357,1358,1359,1360,1361,1362,1363,1364,1365,1366,1367,1368,1369,1370,1371,1372,1373
35509,34917.0,34685.0,34275.0,34292.0,34613.0,35120.0,34477.0,32874.0,33119.0,33801.0,34468.0,33883.0,35169.0,35097.0,35093.0,34906.0,34898.0,35035.0,34726.0,35314.0,34639.0,34947.0,34853.0,34706.0,35087.0,34900.0,34739.0,34807.0,34315.0,34607.0,34465.0,34817.0,34758.0,34515.0,34822.0,34654.0,34823.0,34634.0,34615.0,34726.0,35028.0,34674.0,34673.0,34483.0,34756.0,34630.0,34531.0,34565.0,34743.0,35890.0,35518.0,35578.0,35615.0,35609.0,34909.0,32575.0,35005.0,32525.0,33557.0,33802.0,33620.0,31880.0,31818.0,31576.0,31478.0,31891.0,31538.0,31829.0,31574.0,31339.0,31389.0,31820.0,31962.0,31815.0,31866.0,31923.0,32096.0,31948.0,31971.0,31839.0,31571.0,32203.0,31909.0,31635.0,31485.0,32063.0,31747.0,32002.0,31740.0,31834.0,31812.0,31798.0,31486.0,31699.0,31581.0,31807.0,31426.0,31835.0,31801.0,32128.0,31804.0,31878.0,31697.0,31605.0,31770.0,30712.0,30678.0,30571.0,30680.0,30859.0,30954.0,30854.0,30611.0,30878.0,30439.0,30435.0,30983.0,30763.0,30811.0,30612.0,30497.0,30441.0,30960.0,30633.0,30438.0,33052.0,33214.0,33404.0,32921.0,32896.0,33446.0,33110.0,33560.0,33506.0,34088.0,33940.0,32984.0,30879.0,33266.0,30706.0,30532.0,30251.0,30429.0,29845.0,30100.0,30004.0,29737.0,29782.0,29507.0,29731.0,29645.0,29687.0,29564.0,30413.0,30603.0,31603.0,31121.0,30488.0,30089.0,30638.0,30629.0,30284.0,29991.0,30056.0,29678.0,30172.0,30332.0,30386.0,30325.0,30305.0,29675.0,33198.0,32863.0,32674.0,32460.0,32623.0,32200.0,32280.0,32017.0,32414.0,32352.0,32288.0,32396.0,32290.0,32474.0,32070.0,32299.0,32299.0,32210.0,32498.0,32405.0,32399.0,32539.0,32159.0,32210.0,32143.0,32019.0,31719.0,31904.0,32369.0,32354.0,32332.0,32458.0,32595.0,32478.0,32520.0,32301.0,32275.0,32308.0,31530.0,31579.0,31969.0,32234.0,32464.0,32285.0,31477.0,31503.0,32593.0,35046.0,34961.0,34968.0,34769.0,34616.0,34839.0,34809.0,34764.0,34954.0,34868.0,34597.0,34976.0,34943.0,34754.0,34912.0,34541.0,34860.0,34700.0,34733.0,35177.0,34814.0,34607.0,34740.0,35123.0,35116.0,34871.0,34874.0,34807.0,34698.0,34784.0,35061.0,35096.0,34570.0,34508.0,34391.0,34288.0,34595.0,34742.0,34588.0,34869.0,34685.0,34713.0,34300.0,34741.0,35592.0,35301.0,35283.0,35159.0,35264.0,35239.0,35307.0,35067.0,35022.0,34740.0,35078.0,35029.0,34930.0,33810.0,33977.0,33657.0,33916.0,33915.0,33699.0,33882.0,33859.0,33755.0,33569.0,33800.0,33879.0,33724.0,33781.0,33693.0,33330.0,33511.0,33058.0,33398.0,33338.0,33357.0,33431.0,33431.0,33382.0,33240.0,33253.0,33613.0,33404.0,33347.0,34080.0,34098.0,33247.0,33141.0,35657.0,74250.0,74499.0,73973.0,74038.0,74155.0,73410.0,74000.0,73885.0,74092.0,74208.0,74838.0,74142.0,74553.0,73792.0,74211.0,73739.0,74070.0,73787.0,74441.0,74013.0,74076.0,74567.0,74055.0,74475.0,74795.0,74327.0,73971.0,73949.0,73969.0,74168.0,73654.0,74006.0,74354.0,74037.0,74392.0,73708.0,28807.0,28503.0,28618.0,28849.0,28700.0,29025.0,28769.0,28810.0,28798.0,28478.0,28409.0,28640.0,28432.0,28728.0,28509.0,28301.0,28547.0,28322.0,28292.0,28386.0,28520.0,28365.0,28268.0,28269.0,28080.0,28101.0,28445.0,28324.0,28549.0,28335.0,28330.0,28121.0,28612.0,30449.0,30593.0,30516.0,29534.0,32400.0,32496.0,32013.0,32017.0,32034.0,31987.0,31553.0,31898.0,31724.0,31925.0,31589.0,31925.0,31662.0,31568.0,31411.0,31451.0,31496.0,31777.0,31551.0,31405.0,30991.0,31350.0,31188.0,31584.0,31475.0,31281.0,31811.0,31603.0,31640.0,31501.0,31683.0,32191.0,31417.0,27131.0,27197.0,27250.0,27252.0,27539.0,27264.0,26896.0,27214.0,26849.0,27211.0,27135.0,27110.0,27108.0,26908.0,26968.0,27135.0,26612.0,26629.0,26999.0,26989.0,26756.0,26676.0,26512.0,26958.0,27113.0,27023.0,26862.0,26849.0,27113.0,26974.0,26849.0,27073.0,26808.0,26907.0,26778.0,26672.0,27233.0,26681.0,26772.0,26993.0,26858.0,26879.0,26627.0,26828.0,26720.0,26824.0,26578.0,26916.0,26645.0,26770.0,26623.0,26595.0,26656.0,26338.0,26448.0,26710.0,26598.0,26718.0,26781.0,26221.0,26543.0,26547.0,26241.0,26184.0,26541.0,26175.0,26211.0,26245.0,25892.0,26097.0,26441.0,26201.0,26263.0,26091.0,26295.0,26274.0,26142.0,26354.0,26115.0,26257.0,26461.0,30210.0,30018.0,30091.0,30068.0,30109.0,29862.0,30154.0,30152.0,29912.0,30125.0,30080.0,29863.0,30197.0,30003.0,29936.0,29900.0,29826.0,30157.0,30134.0,29979.0,29813.0,29961.0,30042.0,30180.0,30121.0,30568.0,30562.0,30139.0,29883.0,29800.0,30445.0,30491.0,30610.0,30443.0,30523.0,30638.0,30402.0,29952.0,30763.0,30215.0,27649.0,27254.0,26672.0,26306.0,26537.0,26946.0,26271.0,26566.0,26747.0,26884.0,27041.0,26187.0,26894.0,26878.0,27280.0,26468.0,26539.0,26762.0,26441.0,26890.0,26806.0,26635.0,26694.0,26753.0,27207.0,27090.0,26526.0,26565.0,26635.0,26387.0,26593.0,27107.0,26893.0,27222.0,27059.0,26600.0,26573.0,26538.0,27021.0,26613.0,26374.0,26834.0,26498.0,26856.0,26732.0,26630.0,26639.0,26626.0,26644.0,26618.0,26792.0,27043.0,26687.0,26626.0,26618.0,26663.0,26905.0,26855.0,26756.0,26686.0,26715.0,26845.0,26851.0,26591.0,26723.0,26876.0,26730.0,26779.0,26635.0,26671.0,26692.0,27195.0,26938.0,26701.0,26676.0,26623.0,26611.0,26459.0,26495.0,26315.0,26461.0,26542.0,26637.0,30493.0,30371.0,30451.0,30542.0,30382.0,30143.0,30006.0,30022.0,30249.0,30033.0,29999.0,30107.0,29743.0,30046.0,29945.0,29951.0,30191.0,30124.0,29922.0,29705.0,29819.0,29587.0,29606.0,29492.0,29352.0,29498.0,29662.0,29428.0,29478.0,29325.0,29204.0,29332.0,29316.0,29562.0,29136.0,29318.0,29100.0,29681.0,29227.0,29302.0,27359.0,27563.0,26996.0,27171.0,27551.0,27504.0,27171.0,26989.0,27388.0,27326.0,27105.0,26996.0,26810.0,26852.0,27670.0,27111.0,27012.0,27156.0,27174.0,26970.0,27221.0,27041.0,26920.0,27109.0,26950.0,26847.0,27015.0,27057.0,27167.0,26861.0,26682.0,26791.0,26869.0,26864.0,26632.0,26742.0,26728.0,26647.0,26732.0,27321.0,27085.0,27660.0,31857.0,31761.0,32172.0,31573.0,31429.0,31467.0,31567.0,31735.0,31602.0,31827.0,31316.0,31324.0,31272.0,31324.0,31508.0,31665.0,31300.0,31671.0,31182.0,31456.0,31269.0,31381.0,31697.0,31547.0,31800.0,32085.0,31628.0,31104.0,31160.0,31861.0,31865.0,31874.0,31443.0,31557.0,31520.0,31477.0,31646.0,32135.0,32092.0,31919.0,31951.0,31977.0,31990.0,31898.0,31782.0,32045.0,31708.0,31716.0,31716.0,31580.0,31695.0,31600.0,31405.0,31744.0,31618.0,31497.0,31839.0,31594.0,31611.0,31589.0,31832.0,31344.0,31400.0,31635.0,31400.0,31511.0,31353.0,31313.0,31449.0,31384.0,31688.0,31405.0,31392.0,31211.0,31536.0,31359.0,31216.0,30149.0,30075.0,30097.0,30054.0,29990.0,30044.0,29881.0,29953.0,29895.0,29915.0,30211.0,30123.0,30248.0,30129.0,29987.0,30001.0,30090.0,30146.0,30063.0,30092.0,30216.0,30074.0,30222.0,30162.0,30034.0,30012.0,30268.0,30391.0,30331.0,30166.0,30155.0,30058.0,30072.0,30196.0,30155.0,30086.0,30249.0,33552.0,33569.0,33343.0,33514.0,33498.0,33293.0,33341.0,33196.0,33666.0,33703.0,33569.0,33511.0,33400.0,33434.0,33256.0,33801.0,33656.0,33493.0,33453.0,33360.0,33225.0,33676.0,33496.0,33703.0,33503.0,33261.0,33201.0,33151.0,33162.0,33084.0,32993.0,32818.0,32754.0,33033.0,32918.0,33197.0,33349.0,33175.0,33117.0,32988.0,33132.0,33704.0,33179.0,33131.0,27235.0,27111.0,27393.0,27484.0,27807.0,27651.0,27658.0,27432.0,27554.0,27278.0,27504.0,27227.0,26987.0,26823.0,26818.0,26680.0,27234.0,27111.0,27039.0,26684.0,26762.0,26702.0,26928.0,27125.0,26980.0,26935.0,26708.0,26894.0,26660.0,29438.0,29309.0,29234.0,29283.0,29251.0,29307.0,29256.0,29151.0,28976.0,29115.0,28825.0,28808.0,28865.0,29202.0,29220.0,29040.0,29119.0,29115.0,29254.0,29195.0,29150.0,29138.0,29048.0,28924.0,29046.0,29181.0,29192.0,29272.0,29168.0,29345.0,29218.0,29795.0,29885.0,29954.0,30073.0,30130.0,30089.0,30098.0,30054.0,30044.0,30032.0,29989.0,30011.0,29952.0,29999.0,29929.0,29938.0,29904.0,29773.0,29765.0,29761.0,29699.0,29618.0,29552.0,29605.0,29631.0,29654.0,29657.0,29471.0,29487.0,29607.0,29481.0,29523.0,29602.0,29642.0,29615.0,29743.0,29602.0,29632.0,29679.0,29704.0,29701.0,29666.0,29647.0,29680.0,29662.0,29992.0,29971.0,29582.0,27697.0,27589.0,27480.0,27570.0,27471.0,27502.0,27415.0,27541.0,27482.0,27265.0,27570.0,27461.0,27481.0,27574.0,27659.0,27667.0,27299.0,27288.0,27289.0,27353.0,27310.0,27193.0,27210.0,27415.0,27221.0,27412.0,27639.0,27495.0,27478.0,27454.0,27781.0,27547.0,27557.0,27620.0,27545.0,27599.0,27608.0,27419.0,27425.0,27620.0,27510.0,27350.0,28336.0,27777.0,26295.0,26108.0,26466.0,26313.0,26415.0,26332.0,26628.0,26416.0,26488.0,26330.0,26264.0,26686.0,26568.0,26273.0,26755.0,26459.0,26401.0,26673.0,26534.0,26193.0,26340.0,26210.0,26308.0,26185.0,26543.0,26141.0,26315.0,26159.0,26164.0,26158.0,26408.0,26201.0,26240.0,26319.0,26025.0,26244.0,25938.0,26270.0,26069.0,26580.0,30057.0,30121.0,30003.0,30330.0,30250.0,30230.0,30256.0,30234.0,30621.0,30576.0,30532.0,30513.0,30549.0,30530.0,30441.0,30526.0,30629.0,30649.0,30390.0,30550.0,30570.0,30491.0,30458.0,30863.0,30846.0,30729.0,30652.0,30391.0,30592.0,30385.0,30821.0,30775.0,30674.0,30446.0,30446.0,30324.0,30329.0,30369.0,30215.0,30344.0,30384.0,30278.0,30427.0,28817.0,28861.0,28888.0,28893.0,29010.0,29008.0,29008.0,28952.0,28972.0,28976.0,28965.0,28956.0,28963.0,28842.0,28837.0,28844.0,28821.0,28855.0,28851.0,28855.0,28860.0,28825.0,28801.0,28776.0,28761.0,28902.0,28932.0,28879.0,28707.0,28671.0,28759.0,28690.0,28764.0,28663.0,28643.0,28702.0,28565.0,28696.0,28801.0,28818.0,28693.0,28915.0,28953.0,28986.0,29061.0,29102.0,29104.0,29113.0,29060.0,29079.0,29086.0,29052.0,29059.0,29254.0,29236.0,29173.0,29126.0,29092.0,29027.0,29112.0,29173.0,29230.0,29210.0,29048.0,29099.0,29093.0,29135.0,29141.0,29168.0,29116.0,29116.0,29098.0,29069.0,29090.0,29075.0,29108.0,29096.0,29126.0,29118.0,28964.0,26913.0,27041.0,25985.0,26015.0,25843.0,26000.0,25915.0,25934.0,25888.0,25944.0,25918.0,25969.0,25924.0,25967.0,25897.0,25877.0,25794.0,25908.0,25902.0,26013.0,26018.0,25774.0,25892.0,25818.0,25816.0,25910.0,25883.0,25812.0,25833.0,25843.0,25897.0,27061.0,27082.0,26916.0,26945.0,29518.0,30360.0,29786.0,29773.0,30075.0,29843.0,29775.0,29621.0,28936.0,29114.0,28738.0,29027.0,29096.0,28774.0,28917.0,28825.0,29082.0,29557.0,29557.0,29388.0,29337.0,29224.0,29090.0,29361.0,29272.0,29055.0,28680.0,29603.0,29412.0,28503.0,26609.0,26585.0,26296.0,26433.0,26267.0,26280.0,26313.0,26488.0,26237.0,26234.0,26214.0,26394.0,26093.0,26259.0,26108.0,26037.0,26275.0,26565.0,26420.0,26085.0,26189.0,26097.0,26045.0,26155.0,26171.0,26170.0,26023.0,26025.0,26000.0,26149.0,26107.0,25912.0,25768.0,25723.0,25893.0,25844.0,26055.0,26180.0,25977.0,26632.0,26361.0,26103.0,27584.0,27617.0,27629.0,27809.0,27694.0,27828.0,27849.0,27808.0,27890.0,27885.0,27893.0,27935.0,27987.0,28078.0,28180.0,28142.0,28187.0,27942.0,28006.0,27429.0,27958.0,26738.0,26578.0,26430.0,26695.0,26610.0,26449.0,26225.0,26385.0,26292.0,26187.0,26053.0,27338.0,27273.0,27142.0,27229.0,27181.0,27190.0,27208.0,27115.0,27051.0,26949.0,26877.0,26906.0,26996.0,27054.0,27210.0,27253.0,27687.0,27159.0,27063.0,26983.0,27019.0,26848.0,26843.0,26943.0,27302.0,29649.0,29944.0,29663.0,29660.0,29823.0,29947.0,29869.0,29954.0,29494.0,29762.0,29770.0,29586.0,29762.0,29805.0,29241.0,29470.0,29286.0,29561.0,29440.0,29635.0,29657.0,29324.0,29717.0,29665.0,29049.0,28764.0,28598.0,28409.0,28742.0,28690.0,28721.0,28611.0,28371.0,28442.0,28801.0
35508,34936.0,34700.0,34275.0,34303.0,34632.0,35133.0,34494.0,32903.0,33136.0,33813.0,34462.0,33922.0,35171.0,35126.0,35118.0,34929.0,34914.0,35046.0,34756.0,35215.0,34669.0,34970.0,34887.0,34724.0,35111.0,34927.0,34761.0,34830.0,34337.0,34627.0,34486.0,34844.0,34781.0,34533.0,34850.0,34585.0,34844.0,34629.0,34639.0,34744.0,35051.0,34702.0,34688.0,34498.0,34754.0,34590.0,34500.0,34420.0,34765.0,35903.0,35530.0,35620.0,35608.0,35402.0,34919.0,32593.0,34945.0,32529.0,33594.0,33729.0,33632.0,31907.0,31843.0,31499.0,31521.0,31907.0,31568.0,31851.0,31583.0,31288.0,31430.0,31840.0,31985.0,31819.0,31863.0,31952.0,32103.0,31982.0,31995.0,31853.0,31591.0,32227.0,31817.0,31680.0,31504.0,32081.0,31763.0,32021.0,31737.0,31854.0,31834.0,31696.0,31529.0,31712.0,31569.0,31833.0,31454.0,31844.0,31843.0,32153.0,31693.0,31881.0,31707.0,31607.0,31677.0,30745.0,30705.0,30593.0,30697.0,30838.0,30980.0,30881.0,30638.0,30898.0,30464.0,30427.0,31010.0,30789.0,30821.0,30632.0,30522.0,30457.0,30972.0,30638.0,30486.0,33084.0,33161.0,33420.0,32934.0,32926.0,33466.0,33122.0,33575.0,33449.0,34092.0,33955.0,32997.0,30895.0,33278.0,30696.0,30513.0,30257.0,30455.0,29813.0,30112.0,29916.0,29741.0,29795.0,29503.0,29744.0,29645.0,29677.0,29512.0,30413.0,30594.0,31617.0,31099.0,30495.0,30117.0,30653.0,30633.0,30291.0,30016.0,30063.0,29691.0,30191.0,30344.0,30350.0,30339.0,30311.0,29685.0,33218.0,32870.0,32686.0,32481.0,32631.0,32166.0,32315.0,32033.0,32442.0,32306.0,32306.0,32403.0,32313.0,32355.0,32019.0,32298.0,32298.0,32150.0,32513.0,32411.0,32381.0,32548.0,32179.0,32203.0,32174.0,32036.0,31709.0,31940.0,32369.0,32352.0,32366.0,32404.0,32584.0,32502.0,32484.0,32331.0,32439.0,32178.0,31515.0,31626.0,31926.0,32151.0,32478.0,32330.0,31485.0,31519.0,32598.0,35054.0,34972.0,34984.0,34801.0,34647.0,34843.0,34812.0,34781.0,34966.0,34731.0,34639.0,34983.0,34948.0,34791.0,34929.0,34566.0,34853.0,34670.0,34760.0,35182.0,34824.0,34642.0,34549.0,35094.0,35129.0,34860.0,34873.0,34816.0,34721.0,34780.0,34952.0,35110.0,34595.0,34532.0,34331.0,34318.0,34606.0,34752.0,34612.0,34892.0,34704.0,34713.0,34245.0,34747.0,35600.0,35288.0,35250.0,35130.0,35272.0,35263.0,35330.0,35099.0,35041.0,34743.0,35083.0,35046.0,34925.0,33810.0,33994.0,33664.0,33918.0,33910.0,33703.0,33877.0,33810.0,33763.0,33592.0,33748.0,33900.0,33741.0,33795.0,33707.0,33321.0,33476.0,33061.0,33329.0,33343.0,33381.0,33446.0,33347.0,33406.0,33246.0,33265.0,33610.0,33409.0,33364.0,34091.0,34003.0,33262.0,33163.0,35665.0,74250.0,74507.0,73958.0,74043.0,74177.0,73433.0,74050.0,73922.0,73851.0,74219.0,74871.0,74131.0,74573.0,73699.0,74255.0,73756.0,74114.0,73809.0,74473.0,74048.0,74092.0,74588.0,74083.0,74497.0,74832.0,74352.0,73977.0,73998.0,74002.0,74210.0,73601.0,74067.0,74394.0,74072.0,74422.0,73730.0,28815.0,28518.0,28631.0,28872.0,28718.0,28952.0,28786.0,28771.0,28812.0,28491.0,28393.0,28656.0,28405.0,28729.0,28533.0,28309.0,28541.0,28341.0,28227.0,28352.0,28521.0,28382.0,28285.0,28287.0,28104.0,28069.0,28453.0,28343.0,28566.0,28284.0,28328.0,28145.0,28617.0,30454.0,30597.0,30533.0,29557.0,32345.0,32509.0,32036.0,32010.0,32041.0,31902.0,31573.0,31904.0,31742.0,31930.0,31601.0,31911.0,31641.0,31533.0,31395.0,31468.0,31491.0,31796.0,31548.0,31418.0,31002.0,31313.0,31118.0,31579.0,31416.0,31298.0,31789.0,31548.0,31665.0,31518.0,31700.0,32117.0,31417.0,27153.0,27209.0,27264.0,27268.0,27554.0,27281.0,26901.0,27144.0,26815.0,27138.0,27146.0,27127.0,27124.0,26929.0,26985.0,27147.0,26620.0,26642.0,27010.0,27003.0,26775.0,26652.0,26499.0,26975.0,27116.0,27039.0,26871.0,26866.0,27131.0,26967.0,26863.0,27071.0,26749.0,26915.0,26724.0,26690.0,27209.0,26705.0,26789.0,26986.0,26849.0,26889.0,26614.0,26823.0,26729.0,26824.0,26592.0,26929.0,26664.0,26787.0,26621.0,26605.0,26653.0,26347.0,26459.0,26726.0,26614.0,26610.0,26673.0,26191.0,26567.0,26556.0,26255.0,26187.0,26433.0,26193.0,26220.0,26265.0,25890.0,26109.0,26448.0,26201.0,26270.0,26053.0,26305.0,26293.0,26147.0,26360.0,26125.0,26267.0,26479.0,30232.0,30035.0,30091.0,30071.0,30027.0,29862.0,30168.0,30175.0,29935.0,30012.0,30107.0,29892.0,30209.0,30020.0,29946.0,29934.0,29831.0,30132.0,30150.0,29995.0,29741.0,29960.0,29918.0,30201.0,30140.0,30578.0,30465.0,30033.0,29889.0,29832.0,30406.0,30502.0,30620.0,30467.0,30558.0,30643.0,30433.0,29976.0,30772.0,30231.0,27634.0,27266.0,26699.0,26323.0,26544.0,26862.0,26269.0,26578.0,26765.0,26895.0,27063.0,26178.0,26922.0,26896.0,27307.0,26501.0,26495.0,26689.0,26466.0,26820.0,26830.0,26653.0,26724.0,26759.0,27165.0,27105.0,26538.0,26584.0,26656.0,26403.0,26560.0,27126.0,26910.0,27241.0,27047.0,26624.0,26509.0,26544.0,27008.0,26630.0,26395.0,26760.0,26517.0,26867.0,26737.0,26631.0,26636.0,26638.0,26646.0,26611.0,26792.0,27052.0,26657.0,26629.0,26620.0,26674.0,26914.0,26854.0,26758.0,26690.0,26716.0,26812.0,26801.0,26595.0,26736.0,26846.0,26735.0,26792.0,26638.0,26619.0,26670.0,27185.0,26937.0,26707.0,26692.0,26632.0,26629.0,26455.0,26502.0,26325.0,26459.0,26482.0,26643.0,30503.0,30372.0,30461.0,30550.0,30356.0,30153.0,30003.0,30030.0,30254.0,30037.0,30002.0,30113.0,29754.0,30038.0,29953.0,29939.0,30200.0,30129.0,29878.0,29723.0,29787.0,29594.0,29535.0,29503.0,29352.0,29506.0,29656.0,29419.0,29485.0,29271.0,29210.0,29348.0,29336.0,29573.0,29116.0,29330.0,29105.0,29659.0,29238.0,29306.0,27377.0,27510.0,27020.0,27190.0,27569.0,27522.0,27194.0,26958.0,27355.0,27333.0,27127.0,27015.0,26838.0,26849.0,27564.0,27139.0,27038.0,27061.0,27199.0,26992.0,27237.0,27057.0,26936.0,27124.0,26967.0,26877.0,27032.0,27073.0,27179.0,26800.0,26716.0,26811.0,26882.0,26789.0,26642.0,26770.0,26733.0,26659.0,26743.0,27347.0,27065.0,27667.0,31814.0,31761.0,32186.0,31575.0,31379.0,31481.0,31581.0,31746.0,31609.0,31838.0,31319.0,31337.0,31279.0,31340.0,31506.0,31682.0,31312.0,31695.0,31174.0,31454.0,31271.0,31395.0,31713.0,31567.0,31816.0,32093.0,31656.0,31118.0,31088.0,31735.0,31888.0,31891.0,31468.0,31576.0,31524.0,31436.0,31649.0,32133.0,32103.0,31925.0,31965.0,31993.0,31930.0,31894.0,31801.0,32061.0,31659.0,31715.0,31713.0,31581.0,31712.0,31612.0,31413.0,31700.0,31633.0,31505.0,31851.0,31609.0,31602.0,31603.0,31838.0,31339.0,31418.0,31657.0,31389.0,31519.0,31370.0,31330.0,31445.0,31406.0,31699.0,31423.0,31387.0,31217.0,31553.0,31373.0,31229.0,30153.0,30076.0,30101.0,30057.0,29991.0,30042.0,29881.0,29947.0,29900.0,29922.0,30196.0,30106.0,30230.0,30130.0,29981.0,30011.0,30094.0,30141.0,30069.0,30083.0,30200.0,30072.0,30223.0,30177.0,30040.0,30008.0,30269.0,30381.0,30323.0,30169.0,30157.0,30069.0,30066.0,30198.0,30162.0,30072.0,30255.0,33556.0,33582.0,33346.0,33521.0,33493.0,33300.0,33347.0,33200.0,33673.0,33686.0,33575.0,33512.0,33399.0,33406.0,33252.0,33807.0,33662.0,33496.0,33462.0,33361.0,33223.0,33676.0,33496.0,33663.0,33500.0,33263.0,33213.0,33158.0,33170.0,33094.0,32988.0,32804.0,32736.0,33037.0,32929.0,33199.0,33346.0,33179.0,33125.0,32986.0,33135.0,33708.0,33186.0,33138.0,27210.0,27141.0,27421.0,27496.0,27771.0,27670.0,27670.0,27425.0,27502.0,27299.0,27525.0,27259.0,26968.0,26824.0,26820.0,26675.0,27258.0,27100.0,27038.0,26684.0,26702.0,26698.0,26943.0,27141.0,27002.0,26926.0,26662.0,26864.0,26642.0,29442.0,29322.0,29239.0,29252.0,29254.0,29279.0,29262.0,29155.0,28981.0,29124.0,28822.0,28808.0,28870.0,29206.0,29227.0,29047.0,29036.0,29118.0,29222.0,29192.0,29114.0,29145.0,29053.0,28928.0,29050.0,29184.0,29200.0,29224.0,29172.0,29350.0,29223.0,29801.0,29887.0,29944.0,30074.0,30130.0,30085.0,30087.0,30059.0,30046.0,30032.0,29968.0,30017.0,29949.0,29995.0,29930.0,29922.0,29899.0,29775.0,29763.0,29765.0,29692.0,29619.0,29554.0,29607.0,29633.0,29655.0,29660.0,29463.0,29487.0,29608.0,29481.0,29527.0,29601.0,29632.0,29614.0,29737.0,29603.0,29632.0,29681.0,29707.0,29703.0,29656.0,29651.0,29681.0,29665.0,29994.0,29971.0,29587.0,27704.0,27590.0,27492.0,27574.0,27484.0,27500.0,27414.0,27540.0,27494.0,27279.0,27579.0,27456.0,27494.0,27584.0,27670.0,27675.0,27309.0,27300.0,27263.0,27271.0,27324.0,27215.0,27214.0,27419.0,27231.0,27410.0,27638.0,27501.0,27475.0,27460.0,27779.0,27553.0,27563.0,27626.0,27546.0,27604.0,27581.0,27412.0,27428.0,27619.0,27487.0,27348.0,28345.0,27781.0,26313.0,26115.0,26479.0,26319.0,26431.0,26322.0,26544.0,26441.0,26510.0,26312.0,26271.0,26710.0,26593.0,26223.0,26775.0,26472.0,26418.0,26697.0,26554.0,26211.0,26345.0,26217.0,26328.0,26190.0,26442.0,26148.0,26284.0,26171.0,26174.0,26162.0,26368.0,26216.0,26257.0,26239.0,26013.0,26155.0,25944.0,26286.0,26059.0,26593.0,30056.0,30115.0,30006.0,30335.0,30261.0,30235.0,30257.0,30231.0,30602.0,30566.0,30536.0,30525.0,30553.0,30509.0,30440.0,30533.0,30633.0,30652.0,30399.0,30554.0,30574.0,30482.0,30465.0,30868.0,30849.0,30737.0,30654.0,30359.0,30595.0,30394.0,30823.0,30767.0,30673.0,30453.0,30452.0,30330.0,30339.0,30337.0,30226.0,30353.0,30381.0,30284.0,30430.0,28820.0,28860.0,28886.0,28895.0,28996.0,29013.0,29014.0,28958.0,28976.0,28976.0,28970.0,28964.0,28946.0,28846.0,28843.0,28846.0,28820.0,28857.0,28856.0,28855.0,28846.0,28826.0,28789.0,28767.0,28764.0,28902.0,28934.0,28874.0,28702.0,28672.0,28743.0,28696.0,28753.0,28663.0,28644.0,28706.0,28564.0,28697.0,28808.0,28807.0,28700.0,28913.0,28954.0,28986.0,29060.0,29097.0,29099.0,29115.0,29056.0,29083.0,29090.0,29054.0,29067.0,29245.0,29238.0,29175.0,29126.0,29095.0,29029.0,29114.0,29172.0,29233.0,29214.0,29050.0,29105.0,29094.0,29141.0,29140.0,29161.0,29117.0,29115.0,29099.0,29070.0,29093.0,29072.0,29113.0,29095.0,29131.0,29122.0,28965.0,26915.0,27047.0,25990.0,26018.0,25844.0,25998.0,25916.0,25937.0,25889.0,25932.0,25924.0,25971.0,25931.0,25974.0,25902.0,25879.0,25795.0,25911.0,25905.0,26018.0,25999.0,25774.0,25891.0,25821.0,25819.0,25915.0,25889.0,25813.0,25838.0,25826.0,25900.0,27061.0,27084.0,26917.0,26946.0,29544.0,30361.0,29805.0,29788.0,30095.0,29864.0,29786.0,29635.0,28860.0,29136.0,28771.0,29058.0,29124.0,28742.0,28814.0,28749.0,29101.0,29562.0,29569.0,29400.0,29334.0,29243.0,29103.0,29297.0,29285.0,29019.0,28702.0,29627.0,29430.0,28411.0,26625.0,26590.0,26308.0,26440.0,26274.0,26292.0,26320.0,26505.0,26245.0,26240.0,26224.0,26405.0,26101.0,26198.0,26101.0,26035.0,26201.0,26572.0,26423.0,26084.0,26194.0,26102.0,26048.0,26168.0,26184.0,26178.0,26019.0,26033.0,25940.0,26149.0,26125.0,25921.0,25761.0,25725.0,25841.0,25848.0,26031.0,26181.0,25984.0,26631.0,26361.0,26102.0,27588.0,27619.0,27637.0,27807.0,27693.0,27826.0,27850.0,27811.0,27893.0,27891.0,27890.0,27941.0,27988.0,28077.0,28182.0,28139.0,28190.0,27949.0,28008.0,27436.0,27963.0,26739.0,26565.0,26437.0,26701.0,26592.0,26447.0,26226.0,26394.0,26297.0,26195.0,26054.0,27325.0,27278.0,27140.0,27233.0,27183.0,27194.0,27211.0,27117.0,27041.0,26952.0,26883.0,26916.0,27000.0,27056.0,27205.0,27255.0,27691.0,27148.0,27068.0,26988.0,27024.0,26810.0,26805.0,26947.0,27308.0,29655.0,29950.0,29667.0,29670.0,29836.0,29945.0,29883.0,29896.0,29503.0,29769.0,29787.0,29599.0,29772.0,29807.0,29247.0,29419.0,29296.0,29566.0,29452.0,29646.0,29594.0,29328.0,29728.0,29679.0,29002.0,28750.0,28602.0,28356.0,28727.0,28692.0,28728.0,28613.0,28387.0,28433.0,28809.0
35500,34959.0,34706.0,34281.0,34314.0,34648.0,35152.0,34500.0,32927.0,33155.0,33824.0,34467.0,33955.0,35098.0,35148.0,35128.0,34950.0,34941.0,35056.0,34791.0,35013.0,34704.0,34988.0,34922.0,34750.0,35138.0,34951.0,34775.0,34854.0,34371.0,34648.0,34511.0,34862.0,34812.0,34553.0,34858.0,34572.0,34860.0,34614.0,34651.0,34752.0,35065.0,34709.0,34706.0,34513.0,34693.0,34582.0,34498.0,34318.0,34778.0,35906.0,35561.0,35650.0,35603.0,35204.0,34918.0,32605.0,34901.0,32523.0,33628.0,33673.0,33650.0,31925.0,31869.0,31443.0,31549.0,31928.0,31600.0,31867.0,31588.0,31254.0,31458.0,31864.0,31999.0,31816.0,31859.0,31970.0,32124.0,32005.0,32016.0,31857.0,31615.0,32235.0,31745.0,31715.0,31525.0,32090.0,31778.0,32031.0,31739.0,31866.0,31858.0,31616.0,31557.0,31728.0,31565.0,31851.0,31496.0,31859.0,31879.0,32150.0,31605.0,31891.0,31706.0,31609.0,31608.0,30771.0,30728.0,30605.0,30723.0,30772.0,30988.0,30904.0,30666.0,30924.0,30509.0,30422.0,31020.0,30801.0,30822.0,30636.0,30542.0,30488.0,30992.0,30667.0,30500.0,33124.0,33151.0,33446.0,32932.0,32944.0,33484.0,33134.0,33585.0,33460.0,34084.0,33964.0,33006.0,30899.0,33312.0,30691.0,30507.0,30263.0,30499.0,29802.0,30123.0,29864.0,29743.0,29809.0,29501.0,29758.0,29655.0,29680.0,29498.0,30423.0,30562.0,31633.0,31079.0,30500.0,30133.0,30672.0,30648.0,30309.0,30047.0,30068.0,29703.0,30225.0,30354.0,30286.0,30350.0,30313.0,29699.0,33236.0,32880.0,32684.0,32491.0,32639.0,32141.0,32343.0,32051.0,32455.0,32283.0,32313.0,32416.0,32322.0,32262.0,32001.0,32304.0,32304.0,32117.0,32525.0,32401.0,32363.0,32552.0,32176.0,32205.0,32207.0,32031.0,31723.0,31967.0,32353.0,32329.0,32388.0,32275.0,32570.0,32520.0,32367.0,32354.0,32435.0,32025.0,31514.0,31671.0,31907.0,32007.0,32486.0,32369.0,31496.0,31520.0,32591.0,35057.0,34982.0,35002.0,34826.0,34686.0,34838.0,34823.0,34802.0,34980.0,34550.0,34679.0,34996.0,34950.0,34823.0,34946.0,34607.0,34846.0,34680.0,34791.0,35194.0,34830.0,34669.0,34565.0,34925.0,35135.0,34886.0,34866.0,34826.0,34737.0,34775.0,34739.0,35120.0,34626.0,34559.0,34175.0,34352.0,34628.0,34766.0,34623.0,34914.0,34722.0,34726.0,34229.0,34744.0,35604.0,35287.0,35239.0,35112.0,35277.0,35293.0,35340.0,35138.0,35047.0,34729.0,35092.0,35052.0,34914.0,33797.0,34017.0,33673.0,33922.0,33894.0,33717.0,33867.0,33789.0,33777.0,33616.0,33722.0,33916.0,33763.0,33811.0,33734.0,33315.0,33379.0,33080.0,33287.0,33354.0,33399.0,33465.0,33269.0,33425.0,33250.0,33269.0,33569.0,33426.0,33381.0,34098.0,33942.0,33277.0,33185.0,35664.0,74263.0,74533.0,73939.0,74078.0,74215.0,73447.0,74099.0,73949.0,73719.0,74219.0,74894.0,74155.0,74593.0,73678.0,74304.0,73783.0,74149.0,73807.0,74500.0,74107.0,74098.0,74501.0,74120.0,74520.0,74867.0,74371.0,73973.0,74037.0,74039.0,74241.0,73599.0,74094.0,74435.0,74109.0,74316.0,73757.0,28828.0,28537.0,28640.0,28884.0,28730.0,28876.0,28812.0,28699.0,28805.0,28505.0,28388.0,28673.0,28382.0,28693.0,28548.0,28325.0,28482.0,28359.0,28177.0,28319.0,28480.0,28398.0,28294.0,28308.0,28118.0,28046.0,28459.0,28358.0,28583.0,28249.0,28290.0,28165.0,28632.0,30464.0,30609.0,30552.0,29571.0,32308.0,32520.0,32053.0,32000.0,32039.0,31829.0,31588.0,31914.0,31775.0,31939.0,31609.0,31850.0,31655.0,31511.0,31383.0,31484.0,31490.0,31798.0,31507.0,31444.0,31010.0,31290.0,31062.0,31585.0,31375.0,31317.0,31789.0,31523.0,31687.0,31532.0,31694.0,32051.0,31435.0,27170.0,27224.0,27280.0,27278.0,27568.0,27295.0,26912.0,27066.0,26796.0,27061.0,27160.0,27149.0,27140.0,26949.0,27004.0,27147.0,26645.0,26654.0,27014.0,27012.0,26795.0,26638.0,26501.0,26995.0,27114.0,27050.0,26887.0,26882.0,27143.0,26938.0,26881.0,27050.0,26704.0,26932.0,26678.0,26708.0,27188.0,26720.0,26802.0,26975.0,26844.0,26897.0,26616.0,26816.0,26747.0,26817.0,26613.0,26939.0,26677.0,26799.0,26616.0,26612.0,26597.0,26368.0,26475.0,26740.0,26621.0,26519.0,26591.0,26184.0,26576.0,26568.0,26275.0,26195.0,26339.0,26205.0,26229.0,26276.0,25886.0,26124.0,26456.0,26220.0,26281.0,26037.0,26317.0,26300.0,26153.0,26357.0,26136.0,26283.0,26495.0,30250.0,30058.0,30093.0,30075.0,29976.0,29872.0,30184.0,30189.0,29960.0,29923.0,30127.0,29918.0,30221.0,30035.0,29952.0,29952.0,29832.0,30052.0,30158.0,30030.0,29707.0,29956.0,29820.0,30208.0,30158.0,30601.0,30388.0,29927.0,29888.0,29876.0,30405.0,30504.0,30637.0,30490.0,30583.0,30649.0,30458.0,30003.0,30794.0,30238.0,27536.0,27280.0,26722.0,26335.0,26550.0,26777.0,26273.0,26598.0,26779.0,26902.0,27089.0,26182.0,26947.0,26918.0,27320.0,26532.0,26458.0,26608.0,26489.0,26765.0,26848.0,26665.0,26744.0,26764.0,27137.0,27115.0,26554.0,26602.0,26679.0,26432.0,26536.0,27144.0,26907.0,27251.0,27039.0,26646.0,26456.0,26549.0,26947.0,26644.0,26419.0,26702.0,26547.0,26870.0,26754.0,26626.0,26640.0,26650.0,26644.0,26612.0,26766.0,27066.0,26651.0,26626.0,26624.0,26694.0,26925.0,26852.0,26763.0,26697.0,26723.0,26770.0,26757.0,26606.0,26745.0,26809.0,26742.0,26799.0,26647.0,26569.0,26626.0,27155.0,26925.0,26693.0,26696.0,26647.0,26644.0,26460.0,26520.0,26324.0,26450.0,26437.0,26646.0,30495.0,30374.0,30468.0,30557.0,30329.0,30153.0,29994.0,30040.0,30233.0,30046.0,30006.0,30124.0,29763.0,30010.0,29962.0,29927.0,30210.0,30142.0,29824.0,29729.0,29771.0,29614.0,29485.0,29516.0,29362.0,29527.0,29644.0,29424.0,29490.0,29241.0,29222.0,29360.0,29352.0,29577.0,29101.0,29343.0,29113.0,29620.0,29246.0,29306.0,27392.0,27471.0,27049.0,27198.0,27581.0,27520.0,27212.0,26936.0,27276.0,27353.0,27148.0,27044.0,26844.0,26858.0,27454.0,27161.0,27056.0,27000.0,27214.0,27015.0,27252.0,27079.0,26952.0,27127.0,26984.0,26893.0,27043.0,27090.0,27193.0,26758.0,26738.0,26825.0,26882.0,26726.0,26667.0,26794.0,26735.0,26670.0,26751.0,27359.0,27052.0,27669.0,31791.0,31769.0,32194.0,31507.0,31362.0,31494.0,31592.0,31754.0,31609.0,31800.0,31313.0,31358.0,31288.0,31344.0,31523.0,31697.0,31324.0,31700.0,31174.0,31430.0,31272.0,31398.0,31728.0,31581.0,31833.0,32107.0,31657.0,31129.0,31062.0,31676.0,31910.0,31907.0,31482.0,31597.0,31530.0,31406.0,31649.0,32149.0,32103.0,31938.0,31980.0,32009.0,31883.0,31894.0,31815.0,32071.0,31634.0,31714.0,31710.0,31596.0,31726.0,31622.0,31421.0,31670.0,31641.0,31508.0,31871.0,31621.0,31604.0,31616.0,31847.0,31329.0,31434.0,31664.0,31387.0,31518.0,31377.0,31349.0,31439.0,31417.0,31705.0,31448.0,31392.0,31226.0,31536.0,31388.0,31248.0,30162.0,30071.0,30108.0,30063.0,29996.0,30037.0,29887.0,29945.0,29896.0,29931.0,30182.0,30100.0,30209.0,30134.0,29987.0,30023.0,30101.0,30147.0,30065.0,30087.0,30181.0,30073.0,30231.0,30179.0,30036.0,30007.0,30269.0,30376.0,30302.0,30164.0,30159.0,30070.0,30064.0,30206.0,30162.0,30067.0,30258.0,33567.0,33592.0,33349.0,33529.0,33505.0,33318.0,33352.0,33206.0,33684.0,33685.0,33573.0,33521.0,33395.0,33371.0,33259.0,33804.0,33668.0,33502.0,33464.0,33372.0,33236.0,33680.0,33498.0,33630.0,33504.0,33269.0,33217.0,33163.0,33147.0,33101.0,32980.0,32813.0,32729.0,33048.0,32930.0,33207.0,33357.0,33183.0,33135.0,32989.0,33143.0,33709.0,33182.0,33147.0,27199.0,27169.0,27436.0,27507.0,27669.0,27683.0,27689.0,27426.0,27487.0,27313.0,27541.0,27293.0,26966.0,26835.0,26829.0,26674.0,27267.0,27102.0,27035.0,26698.0,26626.0,26706.0,26970.0,27156.0,27013.0,26924.0,26644.0,26781.0,26581.0,29437.0,29333.0,29245.0,29187.0,29258.0,29248.0,29272.0,29161.0,28992.0,29135.0,28822.0,28813.0,28867.0,29206.0,29221.0,29055.0,28981.0,29116.0,29197.0,29200.0,29093.0,29162.0,29058.0,28946.0,29062.0,29195.0,29209.0,29190.0,29178.0,29353.0,29233.0,29799.0,29888.0,29933.0,30076.0,30132.0,30087.0,30074.0,30062.0,30048.0,30033.0,29955.0,30018.0,29948.0,29982.0,29933.0,29907.0,29895.0,29775.0,29765.0,29764.0,29684.0,29619.0,29555.0,29608.0,29633.0,29655.0,29652.0,29458.0,29489.0,29609.0,29483.0,29528.0,29603.0,29631.0,29617.0,29724.0,29602.0,29633.0,29688.0,29708.0,29706.0,29650.0,29656.0,29682.0,29668.0,29996.0,29970.0,29588.0,27709.0,27592.0,27496.0,27582.0,27490.0,27500.0,27413.0,27536.0,27508.0,27289.0,27576.0,27455.0,27502.0,27595.0,27681.0,27661.0,27324.0,27306.0,27258.0,27194.0,27336.0,27226.0,27222.0,27428.0,27244.0,27413.0,27637.0,27505.0,27473.0,27466.0,27779.0,27556.0,27561.0,27634.0,27548.0,27611.0,27560.0,27390.0,27434.0,27621.0,27440.0,27347.0,28349.0,27777.0,26330.0,26126.0,26495.0,26332.0,26446.0,26314.0,26513.0,26460.0,26530.0,26290.0,26285.0,26729.0,26609.0,26197.0,26785.0,26493.0,26435.0,26715.0,26576.0,26230.0,26350.0,26226.0,26343.0,26202.0,26314.0,26157.0,26270.0,26188.0,26178.0,26168.0,26247.0,26229.0,26275.0,26146.0,26005.0,26111.0,25954.0,26301.0,26053.0,26604.0,30059.0,30115.0,30013.0,30341.0,30263.0,30241.0,30260.0,30220.0,30578.0,30566.0,30544.0,30531.0,30558.0,30486.0,30447.0,30538.0,30635.0,30658.0,30403.0,30565.0,30583.0,30482.0,30470.0,30867.0,30857.0,30739.0,30657.0,30340.0,30603.0,30397.0,30828.0,30764.0,30670.0,30462.0,30454.0,30334.0,30342.0,30300.0,30231.0,30359.0,30377.0,30286.0,30435.0,28816.0,28862.0,28890.0,28903.0,28979.0,29013.0,29012.0,28962.0,28979.0,28976.0,28972.0,28962.0,28927.0,28847.0,28843.0,28849.0,28824.0,28860.0,28857.0,28859.0,28839.0,28824.0,28790.0,28758.0,28766.0,28895.0,28938.0,28871.0,28710.0,28674.0,28722.0,28701.0,28733.0,28657.0,28641.0,28709.0,28563.0,28699.0,28807.0,28793.0,28697.0,28911.0,28953.0,28985.0,29065.0,29088.0,29091.0,29115.0,29055.0,29080.0,29095.0,29051.0,29065.0,29235.0,29239.0,29180.0,29123.0,29099.0,29028.0,29116.0,29173.0,29233.0,29210.0,29053.0,29103.0,29093.0,29140.0,29143.0,29151.0,29115.0,29119.0,29097.0,29071.0,29097.0,29073.0,29108.0,29097.0,29136.0,29122.0,28965.0,26916.0,27047.0,25993.0,26021.0,25847.0,26001.0,25917.0,25942.0,25888.0,25916.0,25923.0,25970.0,25931.0,25976.0,25903.0,25876.0,25797.0,25909.0,25905.0,26016.0,25981.0,25775.0,25881.0,25821.0,25822.0,25917.0,25890.0,25806.0,25838.0,25815.0,25899.0,27065.0,27086.0,26919.0,26946.0,29563.0,30362.0,29809.0,29802.0,30108.0,29889.0,29800.0,29641.0,28818.0,29157.0,28809.0,29079.0,29154.0,28730.0,28685.0,28708.0,29116.0,29573.0,29583.0,29406.0,29286.0,29254.0,29119.0,29227.0,29285.0,29006.0,28704.0,29640.0,29445.0,28301.0,26637.0,26600.0,26320.0,26452.0,26281.0,26298.0,26329.0,26514.0,26246.0,26239.0,26237.0,26411.0,26108.0,26136.0,26099.0,26037.0,26132.0,26578.0,26429.0,26083.0,26197.0,26115.0,26060.0,26178.0,26195.0,26194.0,26018.0,26044.0,25899.0,26118.0,26129.0,25922.0,25758.0,25717.0,25785.0,25851.0,26026.0,26187.0,25992.0,26629.0,26360.0,26102.0,27587.0,27617.0,27636.0,27795.0,27700.0,27828.0,27840.0,27816.0,27894.0,27895.0,27889.0,27942.0,27987.0,28082.0,28181.0,28140.0,28193.0,27943.0,28008.0,27439.0,27962.0,26740.0,26546.0,26437.0,26700.0,26563.0,26451.0,26225.0,26394.0,26305.0,26203.0,26061.0,27314.0,27279.0,27140.0,27235.0,27188.0,27192.0,27217.0,27122.0,27038.0,26954.0,26896.0,26920.0,27000.0,27057.0,27205.0,27252.0,27693.0,27142.0,27078.0,26994.0,27021.0,26778.0,26771.0,26950.0,27319.0,29655.0,29956.0,29677.0,29681.0,29849.0,29931.0,29892.0,29854.0,29515.0,29776.0,29802.0,29604.0,29784.0,29802.0,29252.0,29354.0,29300.0,29575.0,29461.0,29652.0,29563.0,29330.0,29737.0,29690.0,28957.0,28747.0,28624.0,28334.0,28724.0,28693.0,28740.0,28607.0,28396.0,28431.0,28816.0
35484,34960.0,34713.0,34295.0,34324.0,34669.0,35171.0,34503.0,32968.0,33179.0,33842.0,34474.0,33988.0,34948.0,35177.0,35103.0,34966.0,34971.0,35068.0,34818.0,34862.0,34735.0,34989.0,34944.0,34786.0,35154.0,34971.0,34794.0,34880.0,34389.0,34685.0,34534.0,34885.0,34835.0,34587.0,34825.0,34583.0,34889.0,34609.0,34671.0,34744.0,35045.0,34713.0,34726.0,34510.0,34582.0,34580.0,34519.0,34268.0,34778.0,35899.0,35600.0,35685.0,35606.0,35139.0,34909.0,32604.0,34863.0,32523.0,33650.0,33642.0,33664.0,31953.0,31886.0,31420.0,31563.0,31952.0,31641.0,31888.0,31582.0,31240.0,31482.0,31889.0,31974.0,31814.0,31863.0,31998.0,32134.0,32015.0,32041.0,31879.0,31652.0,32209.0,31693.0,31759.0,31554.0,32062.0,31793.0,32013.0,31737.0,31892.0,31888.0,31551.0,31581.0,31753.0,31575.0,31875.0,31531.0,31884.0,31911.0,32102.0,31535.0,31913.0,31698.0,31620.0,31549.0,30799.0,30753.0,30616.0,30750.0,30678.0,30956.0,30920.0,30692.0,30944.0,30542.0,30418.0,31028.0,30834.0,30773.0,30659.0,30556.0,30499.0,31006.0,30681.0,30518.0,33166.0,33160.0,33450.0,32930.0,32967.0,33501.0,33151.0,33589.0,33480.0,34087.0,33984.0,33034.0,30916.0,33344.0,30697.0,30500.0,30279.0,30542.0,29803.0,30140.0,29845.0,29753.0,29823.0,29521.0,29774.0,29656.0,29690.0,29505.0,30432.0,30503.0,31635.0,31070.0,30517.0,30146.0,30688.0,30654.0,30318.0,30068.0,30075.0,29714.0,30232.0,30357.0,30208.0,30350.0,30280.0,29715.0,33247.0,32899.0,32687.0,32480.0,32648.0,32133.0,32358.0,32075.0,32479.0,32275.0,32305.0,32431.0,32314.0,32207.0,32005.0,32315.0,32315.0,32115.0,32529.0,32379.0,32362.0,32557.0,32146.0,32219.0,32231.0,32010.0,31742.0,31994.0,32291.0,32304.0,32404.0,32189.0,32562.0,32543.0,32241.0,32362.0,32371.0,31942.0,31526.0,31716.0,31905.0,31926.0,32489.0,32403.0,31509.0,31527.0,32547.0,35053.0,34986.0,35010.0,34839.0,34722.0,34830.0,34833.0,34818.0,34982.0,34457.0,34707.0,35007.0,34956.0,34844.0,34958.0,34670.0,34862.0,34710.0,34818.0,35201.0,34827.0,34703.0,34595.0,34734.0,35091.0,34893.0,34872.0,34835.0,34748.0,34765.0,34592.0,35122.0,34662.0,34588.0,34046.0,34381.0,34642.0,34784.0,34632.0,34937.0,34738.0,34732.0,34232.0,34755.0,35609.0,35297.0,35261.0,35118.0,35295.0,35302.0,35345.0,35174.0,35033.0,34728.0,35090.0,35065.0,34920.0,33730.0,34031.0,33673.0,33940.0,33894.0,33743.0,33856.0,33777.0,33799.0,33637.0,33725.0,33890.0,33788.0,33804.0,33753.0,33317.0,33292.0,33091.0,33267.0,33361.0,33413.0,33483.0,33204.0,33438.0,33259.0,33269.0,33471.0,33445.0,33393.0,34113.0,33912.0,33292.0,33205.0,35652.0,74278.0,74559.0,73935.0,74116.0,74259.0,73454.0,74148.0,73962.0,73676.0,74226.0,74838.0,74183.0,74609.0,73697.0,74355.0,73822.0,74176.0,73812.0,74530.0,74156.0,74109.0,74221.0,74151.0,74540.0,74894.0,74395.0,73984.0,74052.0,74059.0,74261.0,73646.0,74102.0,74471.0,74146.0,74020.0,73803.0,28837.0,28554.0,28649.0,28908.0,28748.0,28818.0,28836.0,28628.0,28756.0,28519.0,28401.0,28691.0,28363.0,28618.0,28573.0,28335.0,28401.0,28387.0,28134.0,28292.0,28401.0,28423.0,28302.0,28333.0,28135.0,28026.0,28467.0,28373.0,28590.0,28211.0,28242.0,28193.0,28643.0,30472.0,30613.0,30568.0,29590.0,32289.0,32529.0,32071.0,31997.0,32053.0,31781.0,31591.0,31917.0,31799.0,31947.0,31624.0,31765.0,31677.0,31501.0,31375.0,31495.0,31497.0,31762.0,31428.0,31456.0,31022.0,31278.0,31019.0,31588.0,31358.0,31344.0,31785.0,31493.0,31708.0,31544.0,31648.0,32006.0,31453.0,27188.0,27243.0,27294.0,27269.0,27579.0,27307.0,26923.0,27004.0,26795.0,26982.0,27171.0,27166.0,27151.0,26969.0,27013.0,27129.0,26665.0,26674.0,27028.0,27025.0,26814.0,26652.0,26513.0,27012.0,27083.0,27068.0,26897.0,26895.0,27149.0,26877.0,26902.0,27009.0,26672.0,26950.0,26644.0,26728.0,27195.0,26729.0,26822.0,26974.0,26828.0,26906.0,26635.0,26807.0,26769.0,26825.0,26626.0,26926.0,26697.0,26814.0,26625.0,26619.0,26513.0,26385.0,26492.0,26748.0,26639.0,26462.0,26545.0,26189.0,26598.0,26580.0,26293.0,26211.0,26292.0,26220.0,26246.0,26283.0,25902.0,26133.0,26473.0,26246.0,26283.0,26032.0,26326.0,26311.0,26159.0,26361.0,26142.0,26291.0,26515.0,30259.0,30077.0,30095.0,30083.0,29953.0,29887.0,30207.0,30201.0,29983.0,29865.0,30150.0,29947.0,30230.0,30050.0,29952.0,29967.0,29835.0,29950.0,30135.0,30044.0,29705.0,29959.0,29761.0,30185.0,30177.0,30613.0,30331.0,29855.0,29889.0,29902.0,30417.0,30522.0,30649.0,30511.0,30611.0,30663.0,30476.0,30020.0,30808.0,30244.0,27419.0,27293.0,26754.0,26359.0,26564.0,26695.0,26279.0,26619.0,26796.0,26917.0,27111.0,26190.0,26974.0,26930.0,27289.0,26561.0,26420.0,26525.0,26517.0,26725.0,26869.0,26690.0,26764.0,26780.0,27128.0,27113.0,26571.0,26614.0,26704.0,26455.0,26517.0,27165.0,26858.0,27276.0,27028.0,26669.0,26407.0,26568.0,26867.0,26668.0,26442.0,26650.0,26569.0,26848.0,26762.0,26630.0,26653.0,26662.0,26650.0,26623.0,26728.0,27075.0,26650.0,26619.0,26632.0,26709.0,26929.0,26851.0,26774.0,26701.0,26710.0,26749.0,26725.0,26603.0,26758.0,26787.0,26754.0,26805.0,26650.0,26540.0,26581.0,27127.0,26885.0,26648.0,26712.0,26661.0,26643.0,26456.0,26529.0,26316.0,26443.0,26415.0,26648.0,30476.0,30367.0,30471.0,30557.0,30304.0,30155.0,29981.0,30053.0,30199.0,30052.0,30019.0,30141.0,29773.0,29967.0,29970.0,29923.0,30217.0,30146.0,29775.0,29743.0,29759.0,29625.0,29452.0,29525.0,29370.0,29540.0,29653.0,29427.0,29499.0,29220.0,29238.0,29372.0,29361.0,29588.0,29091.0,29357.0,29118.0,29578.0,29261.0,29306.0,27406.0,27449.0,27065.0,27195.0,27599.0,27511.0,27228.0,26926.0,27190.0,27368.0,27171.0,27075.0,26845.0,26870.0,27382.0,27182.0,27060.0,26948.0,27234.0,27026.0,27245.0,27093.0,26976.0,27103.0,26996.0,26914.0,27057.0,27103.0,27203.0,26734.0,26756.0,26845.0,26855.0,26692.0,26706.0,26808.0,26742.0,26692.0,26766.0,27357.0,27041.0,27667.0,31789.0,31767.0,32209.0,31424.0,31348.0,31505.0,31605.0,31762.0,31615.0,31652.0,31326.0,31369.0,31303.0,31359.0,31541.0,31711.0,31338.0,31697.0,31178.0,31416.0,31288.0,31410.0,31736.0,31596.0,31857.0,32081.0,31643.0,31134.0,31060.0,31666.0,31909.0,31921.0,31502.0,31628.0,31538.0,31390.0,31653.0,32150.0,32122.0,31957.0,31996.0,32020.0,31858.0,31901.0,31826.0,32063.0,31611.0,31715.0,31708.0,31610.0,31747.0,31632.0,31430.0,31636.0,31654.0,31513.0,31890.0,31628.0,31612.0,31633.0,31859.0,31318.0,31447.0,31677.0,31388.0,31532.0,31392.0,31367.0,31452.0,31411.0,31715.0,31462.0,31396.0,31244.0,31433.0,31397.0,31260.0,30166.0,30081.0,30109.0,30066.0,30001.0,30013.0,29900.0,29948.0,29905.0,29928.0,30171.0,30092.0,30191.0,30138.0,29992.0,30033.0,30114.0,30152.0,30060.0,30087.0,30165.0,30076.0,30240.0,30190.0,30043.0,30004.0,30275.0,30368.0,30297.0,30169.0,30157.0,30074.0,30064.0,30209.0,30162.0,30064.0,30262.0,33574.0,33596.0,33352.0,33530.0,33505.0,33322.0,33355.0,33207.0,33680.0,33688.0,33582.0,33521.0,33390.0,33348.0,33270.0,33818.0,33671.0,33504.0,33460.0,33376.0,33241.0,33682.0,33499.0,33619.0,33512.0,33277.0,33217.0,33166.0,33105.0,33105.0,32972.0,32819.0,32731.0,33059.0,32935.0,33219.0,33365.0,33183.0,33135.0,33005.0,33154.0,33705.0,33191.0,33153.0,27193.0,27184.0,27438.0,27513.0,27554.0,27679.0,27706.0,27430.0,27486.0,27303.0,27552.0,27311.0,26966.0,26856.0,26843.0,26676.0,27278.0,27102.0,27030.0,26711.0,26554.0,26710.0,26990.0,27173.0,27025.0,26921.0,26641.0,26700.0,26515.0,29440.0,29344.0,29252.0,29137.0,29257.0,29229.0,29286.0,29171.0,28993.0,29137.0,28833.0,28811.0,28867.0,29204.0,29187.0,29073.0,28970.0,29071.0,29186.0,29196.0,29085.0,29165.0,29069.0,28952.0,29072.0,29199.0,29209.0,29189.0,29191.0,29354.0,29238.0,29785.0,29891.0,29929.0,30076.0,30133.0,30091.0,30063.0,30066.0,30052.0,30034.0,29949.0,30019.0,29954.0,29965.0,29938.0,29900.0,29894.0,29777.0,29766.0,29767.0,29684.0,29620.0,29558.0,29605.0,29632.0,29657.0,29635.0,29457.0,29495.0,29610.0,29483.0,29530.0,29602.0,29628.0,29618.0,29712.0,29610.0,29635.0,29689.0,29700.0,29704.0,29647.0,29656.0,29684.0,29669.0,29999.0,29969.0,29588.0,27713.0,27596.0,27508.0,27589.0,27497.0,27497.0,27405.0,27533.0,27519.0,27303.0,27532.0,27461.0,27511.0,27600.0,27689.0,27585.0,27338.0,27303.0,27265.0,27146.0,27350.0,27231.0,27235.0,27431.0,27256.0,27417.0,27637.0,27512.0,27471.0,27474.0,27779.0,27562.0,27561.0,27644.0,27550.0,27616.0,27547.0,27362.0,27434.0,27626.0,27406.0,27342.0,28354.0,27777.0,26339.0,26128.0,26502.0,26343.0,26459.0,26306.0,26494.0,26478.0,26549.0,26276.0,26294.0,26732.0,26629.0,26169.0,26745.0,26510.0,26456.0,26733.0,26595.0,26246.0,26351.0,26237.0,26363.0,26217.0,26252.0,26169.0,26265.0,26208.0,26186.0,26177.0,26151.0,26242.0,26285.0,26093.0,25996.0,26086.0,25965.0,26314.0,26054.0,26615.0,30060.0,30114.0,30015.0,30342.0,30266.0,30237.0,30258.0,30216.0,30559.0,30565.0,30550.0,30538.0,30566.0,30460.0,30461.0,30544.0,30637.0,30654.0,30408.0,30573.0,30589.0,30491.0,30477.0,30870.0,30863.0,30742.0,30658.0,30330.0,30604.0,30401.0,30828.0,30771.0,30669.0,30468.0,30453.0,30345.0,30347.0,30272.0,30235.0,30367.0,30371.0,30296.0,30432.0,28822.0,28864.0,28887.0,28906.0,28975.0,29019.0,29012.0,28963.0,28980.0,28979.0,28976.0,28964.0,28915.0,28850.0,28848.0,28851.0,28827.0,28865.0,28859.0,28853.0,28830.0,28829.0,28785.0,28754.0,28773.0,28898.0,28939.0,28872.0,28709.0,28677.0,28708.0,28701.0,28713.0,28660.0,28650.0,28709.0,28563.0,28704.0,28809.0,28775.0,28696.0,28911.0,28958.0,28984.0,29065.0,29081.0,29081.0,29106.0,29056.0,29088.0,29094.0,29052.0,29066.0,29234.0,29234.0,29177.0,29123.0,29101.0,29031.0,29116.0,29174.0,29240.0,29208.0,29054.0,29103.0,29096.0,29146.0,29142.0,29143.0,29121.0,29118.0,29096.0,29070.0,29098.0,29078.0,29102.0,29101.0,29134.0,29124.0,28969.0,26918.0,27048.0,25996.0,26023.0,25852.0,26000.0,25914.0,25942.0,25888.0,25901.0,25925.0,25976.0,25933.0,25983.0,25904.0,25876.0,25800.0,25910.0,25908.0,26023.0,25971.0,25777.0,25861.0,25826.0,25820.0,25921.0,25892.0,25809.0,25839.0,25814.0,25903.0,27064.0,27086.0,26920.0,26942.0,29581.0,30370.0,29814.0,29816.0,30127.0,29910.0,29817.0,29638.0,28805.0,29177.0,28842.0,29091.0,29187.0,28740.0,28562.0,28687.0,29138.0,29585.0,29581.0,29422.0,29218.0,29273.0,29139.0,29168.0,29240.0,29003.0,28705.0,29648.0,29462.0,28195.0,26651.0,26604.0,26332.0,26458.0,26290.0,26308.0,26341.0,26525.0,26243.0,26245.0,26249.0,26390.0,26109.0,26091.0,26091.0,26032.0,26087.0,26580.0,26431.0,26089.0,26211.0,26122.0,26065.0,26189.0,26204.0,26199.0,26013.0,26055.0,25873.0,26046.0,26118.0,25922.0,25752.0,25713.0,25754.0,25860.0,26025.0,26190.0,26002.0,26624.0,26360.0,26112.0,27586.0,27612.0,27634.0,27786.0,27702.0,27826.0,27827.0,27815.0,27898.0,27896.0,27890.0,27945.0,27990.0,28080.0,28177.0,28143.0,28198.0,27943.0,28005.0,27429.0,27960.0,26745.0,26541.0,26441.0,26699.0,26539.0,26448.0,26227.0,26387.0,26310.0,26206.0,26062.0,27309.0,27284.0,27139.0,27237.0,27188.0,27195.0,27221.0,27111.0,27038.0,26958.0,26900.0,26925.0,27004.0,27063.0,27209.0,27251.0,27691.0,27139.0,27078.0,27004.0,27011.0,26759.0,26742.0,26950.0,27320.0,29645.0,29963.0,29685.0,29689.0,29860.0,29878.0,29899.0,29833.0,29522.0,29784.0,29812.0,29612.0,29791.0,29772.0,29249.0,29311.0,29308.0,29584.0,29467.0,29658.0,29558.0,29324.0,29743.0,29703.0,28923.0,28754.0,28646.0,28322.0,28725.0,28693.0,28746.0,28608.0,28406.0,28436.0,28819.0
35479,34884.0,34723.0,34313.0,34338.0,34684.0,35179.0,34514.0,33013.0,33202.0,33870.0,34477.0,34019.0,34862.0,35200.0,34982.0,34988.0,34985.0,35099.0,34827.0,34800.0,34749.0,34892.0,34952.0,34820.0,35170.0,34990.0,34811.0,34898.0,34404.0,34706.0,34549.0,34900.0,34874.0,34602.0,34693.0,34610.0,34918.0,34610.0,34672.0,34738.0,34936.0,34709.0,34745.0,34511.0,34500.0,34596.0,34543.0,34248.0,34786.0,35907.0,35634.0,35701.0,35612.0,35126.0,34903.0,32599.0,34841.0,32524.0,33661.0,33629.0,33686.0,31973.0,31875.0,31413.0,31568.0,31970.0,31680.0,31920.0,31582.0,31242.0,31489.0,31908.0,31916.0,31812.0,31867.0,32026.0,32153.0,32024.0,32060.0,31894.0,31691.0,32143.0,31666.0,31787.0,31584.0,31995.0,31820.0,31942.0,31744.0,31921.0,31897.0,31506.0,31591.0,31772.0,31599.0,31894.0,31561.0,31913.0,31921.0,32007.0,31488.0,31926.0,31698.0,31641.0,31511.0,30822.0,30780.0,30643.0,30774.0,30588.0,30874.0,30942.0,30722.0,30961.0,30568.0,30421.0,31032.0,30847.0,30674.0,30673.0,30582.0,30529.0,31010.0,30708.0,30541.0,33205.0,33175.0,33407.0,32928.0,32972.0,33519.0,33164.0,33595.0,33496.0,34092.0,33994.0,33051.0,30897.0,33366.0,30728.0,30493.0,30297.0,30585.0,29800.0,30150.0,29851.0,29765.0,29841.0,29539.0,29787.0,29669.0,29717.0,29505.0,30446.0,30420.0,31652.0,31062.0,30530.0,30160.0,30698.0,30665.0,30325.0,30085.0,30082.0,29729.0,30235.0,30337.0,30136.0,30325.0,30223.0,29734.0,33262.0,32916.0,32686.0,32449.0,32649.0,32139.0,32358.0,32102.0,32489.0,32278.0,32262.0,32445.0,32293.0,32191.0,32023.0,32342.0,32342.0,32136.0,32536.0,32353.0,32378.0,32547.0,32103.0,32246.0,32237.0,31969.0,31774.0,32016.0,32143.0,32297.0,32413.0,32152.0,32572.0,32563.0,32184.0,32375.0,32229.0,31902.0,31555.0,31748.0,31915.0,31902.0,32496.0,32439.0,31519.0,31519.0,32453.0,35015.0,34987.0,35026.0,34844.0,34751.0,34825.0,34848.0,34832.0,34914.0,34431.0,34730.0,35012.0,34969.0,34860.0,34976.0,34734.0,34875.0,34749.0,34842.0,35204.0,34752.0,34725.0,34626.0,34651.0,34911.0,34896.0,34877.0,34847.0,34758.0,34777.0,34538.0,35094.0,34694.0,34606.0,33985.0,34401.0,34651.0,34798.0,34645.0,34947.0,34750.0,34739.0,34241.0,34755.0,35613.0,35305.0,35277.0,35135.0,35313.0,35319.0,35355.0,35214.0,35021.0,34736.0,35028.0,35087.0,34924.0,33638.0,34045.0,33668.0,33950.0,33891.0,33762.0,33860.0,33787.0,33826.0,33655.0,33738.0,33811.0,33808.0,33805.0,33762.0,33331.0,33229.0,33108.0,33262.0,33381.0,33429.0,33513.0,33175.0,33447.0,33273.0,33265.0,33391.0,33457.0,33410.0,34119.0,33901.0,33306.0,33223.0,35581.0,74306.0,74591.0,73962.0,74154.0,74294.0,73441.0,74186.0,73958.0,73690.0,74255.0,74567.0,74205.0,74637.0,73712.0,74397.0,73862.0,74212.0,73835.0,74552.0,74187.0,74140.0,73949.0,74183.0,74565.0,74913.0,74425.0,74032.0,74048.0,74083.0,74275.0,73685.0,74104.0,74498.0,74195.0,73763.0,73841.0,28858.0,28572.0,28671.0,28928.0,28770.0,28772.0,28856.0,28572.0,28683.0,28543.0,28424.0,28718.0,28364.0,28542.0,28588.0,28353.0,28344.0,28411.0,28099.0,28276.0,28324.0,28449.0,28309.0,28360.0,28149.0,28003.0,28480.0,28390.0,28575.0,28191.0,28193.0,28220.0,28659.0,30476.0,30615.0,30578.0,29608.0,32285.0,32545.0,32058.0,32004.0,32064.0,31744.0,31594.0,31920.0,31811.0,31956.0,31649.0,31681.0,31695.0,31498.0,31382.0,31495.0,31519.0,31694.0,31349.0,31472.0,31031.0,31265.0,30999.0,31588.0,31344.0,31357.0,31780.0,31476.0,31721.0,31559.0,31581.0,31982.0,31487.0,27205.0,27260.0,27312.0,27235.0,27569.0,27321.0,26930.0,26950.0,26802.0,26917.0,27173.0,27182.0,27172.0,26990.0,27027.0,27078.0,26679.0,26696.0,27039.0,27044.0,26831.0,26671.0,26537.0,27027.0,27021.0,27084.0,26909.0,26906.0,27140.0,26800.0,26919.0,26950.0,26640.0,26959.0,26616.0,26750.0,27205.0,26731.0,26844.0,26970.0,26822.0,26921.0,26643.0,26797.0,26791.0,26834.0,26631.0,26861.0,26708.0,26831.0,26628.0,26628.0,26454.0,26402.0,26507.0,26756.0,26636.0,26423.0,26513.0,26209.0,26614.0,26592.0,26304.0,26223.0,26280.0,26232.0,26259.0,26289.0,25911.0,26152.0,26479.0,26262.0,26296.0,26047.0,26330.0,26312.0,26174.0,26368.0,26151.0,26305.0,26523.0,30270.0,30103.0,30095.0,30085.0,29960.0,29901.0,30223.0,30223.0,30021.0,29840.0,30170.0,29974.0,30245.0,30065.0,29953.0,29978.0,29841.0,29842.0,30050.0,30058.0,29721.0,29970.0,29729.0,30122.0,30196.0,30638.0,30301.0,29808.0,29903.0,29918.0,30441.0,30538.0,30660.0,30538.0,30633.0,30679.0,30484.0,30037.0,30817.0,30249.0,27341.0,27320.0,26783.0,26383.0,26572.0,26620.0,26287.0,26646.0,26807.0,26924.0,27137.0,26196.0,26999.0,26950.0,27185.0,26595.0,26388.0,26454.0,26541.0,26702.0,26888.0,26709.0,26783.0,26792.0,27123.0,27065.0,26589.0,26621.0,26697.0,26474.0,26506.0,27175.0,26785.0,27283.0,27030.0,26692.0,26372.0,26578.0,26808.0,26688.0,26477.0,26601.0,26602.0,26813.0,26774.0,26630.0,26659.0,26671.0,26655.0,26632.0,26678.0,27082.0,26651.0,26624.0,26640.0,26720.0,26925.0,26857.0,26783.0,26706.0,26672.0,26738.0,26713.0,26605.0,26747.0,26777.0,26761.0,26813.0,26650.0,26526.0,26549.0,27107.0,26837.0,26598.0,26720.0,26664.0,26612.0,26459.0,26548.0,26304.0,26454.0,26416.0,26659.0,30437.0,30364.0,30482.0,30564.0,30275.0,30166.0,29964.0,30058.0,30153.0,30056.0,30027.0,30152.0,29785.0,29918.0,29973.0,29927.0,30229.0,30153.0,29743.0,29751.0,29756.0,29631.0,29433.0,29536.0,29378.0,29549.0,29653.0,29429.0,29515.0,29200.0,29248.0,29379.0,29370.0,29600.0,29086.0,29367.0,29128.0,29546.0,29270.0,29308.0,27423.0,27436.0,27076.0,27199.0,27613.0,27449.0,27226.0,26918.0,27112.0,27382.0,27188.0,27096.0,26847.0,26881.0,27333.0,27207.0,27059.0,26911.0,27248.0,27045.0,27195.0,27111.0,26989.0,27036.0,27024.0,26927.0,27075.0,27119.0,27197.0,26723.0,26761.0,26858.0,26789.0,26674.0,26736.0,26822.0,26753.0,26713.0,26786.0,27354.0,27054.0,27665.0,31801.0,31768.0,32226.0,31385.0,31350.0,31523.0,31620.0,31791.0,31628.0,31561.0,31328.0,31374.0,31318.0,31367.0,31552.0,31681.0,31353.0,31681.0,31186.0,31405.0,31300.0,31419.0,31750.0,31614.0,31874.0,31972.0,31627.0,31160.0,31063.0,31664.0,31895.0,31934.0,31517.0,31642.0,31548.0,31377.0,31657.0,32164.0,32129.0,31971.0,32013.0,32030.0,31843.0,31916.0,31843.0,31964.0,31594.0,31712.0,31711.0,31622.0,31766.0,31632.0,31447.0,31620.0,31674.0,31524.0,31900.0,31616.0,31617.0,31651.0,31872.0,31323.0,31457.0,31687.0,31394.0,31551.0,31397.0,31380.0,31466.0,31396.0,31725.0,31473.0,31410.0,31263.0,31325.0,31409.0,31269.0,30166.0,30078.0,30118.0,30068.0,29999.0,30004.0,29908.0,29957.0,29900.0,29934.0,30167.0,30087.0,30177.0,30141.0,29996.0,30036.0,30120.0,30149.0,30056.0,30083.0,30150.0,30074.0,30239.0,30193.0,30058.0,30006.0,30281.0,30373.0,30296.0,30160.0,30156.0,30082.0,30065.0,30209.0,30164.0,30061.0,30261.0,33577.0,33598.0,33365.0,33533.0,33516.0,33317.0,33355.0,33221.0,33679.0,33692.0,33585.0,33520.0,33389.0,33344.0,33273.0,33825.0,33674.0,33503.0,33428.0,33375.0,33248.0,33685.0,33505.0,33611.0,33510.0,33280.0,33222.0,33176.0,33065.0,33109.0,32970.0,32826.0,32741.0,33057.0,32937.0,33227.0,33364.0,33189.0,33153.0,33016.0,33155.0,33713.0,33197.0,33159.0,27192.0,27193.0,27435.0,27530.0,27483.0,27623.0,27720.0,27437.0,27505.0,27308.0,27555.0,27311.0,26972.0,26883.0,26847.0,26686.0,27245.0,27101.0,27027.0,26721.0,26508.0,26718.0,27007.0,27189.0,27042.0,26918.0,26656.0,26632.0,26462.0,29443.0,29356.0,29266.0,29127.0,29261.0,29225.0,29295.0,29174.0,28990.0,29144.0,28839.0,28824.0,28866.0,29162.0,29121.0,29091.0,28979.0,28987.0,29178.0,29208.0,29089.0,29185.0,29078.0,28971.0,29090.0,29199.0,29211.0,29195.0,29208.0,29361.0,29241.0,29764.0,29893.0,29925.0,30078.0,30134.0,30090.0,30057.0,30067.0,30054.0,30037.0,29944.0,30022.0,29955.0,29953.0,29944.0,29897.0,29896.0,29775.0,29768.0,29770.0,29681.0,29618.0,29561.0,29605.0,29633.0,29657.0,29620.0,29459.0,29495.0,29611.0,29487.0,29528.0,29602.0,29635.0,29617.0,29706.0,29608.0,29636.0,29685.0,29688.0,29692.0,29646.0,29658.0,29689.0,29673.0,30000.0,29972.0,29590.0,27717.0,27603.0,27516.0,27594.0,27500.0,27498.0,27400.0,27530.0,27528.0,27314.0,27466.0,27467.0,27518.0,27615.0,27701.0,27500.0,27344.0,27298.0,27278.0,27122.0,27361.0,27224.0,27250.0,27443.0,27267.0,27419.0,27638.0,27512.0,27475.0,27480.0,27776.0,27567.0,27563.0,27648.0,27554.0,27618.0,27548.0,27342.0,27439.0,27631.0,27391.0,27340.0,28358.0,27780.0,26313.0,26139.0,26506.0,26354.0,26479.0,26302.0,26484.0,26502.0,26571.0,26260.0,26303.0,26690.0,26645.0,26140.0,26636.0,26529.0,26475.0,26754.0,26615.0,26268.0,26364.0,26252.0,26381.0,26234.0,26231.0,26187.0,26258.0,26225.0,26194.0,26187.0,26112.0,26258.0,26299.0,26076.0,25990.0,26071.0,25970.0,26330.0,26068.0,26627.0,30065.0,30115.0,30018.0,30349.0,30274.0,30241.0,30263.0,30214.0,30549.0,30574.0,30553.0,30546.0,30571.0,30450.0,30461.0,30545.0,30627.0,30631.0,30410.0,30584.0,30588.0,30495.0,30480.0,30871.0,30866.0,30748.0,30642.0,30332.0,30598.0,30411.0,30827.0,30777.0,30679.0,30473.0,30461.0,30347.0,30354.0,30263.0,30243.0,30372.0,30364.0,30295.0,30419.0,28824.0,28868.0,28889.0,28909.0,28965.0,29020.0,29020.0,28965.0,28987.0,28986.0,28977.0,28968.0,28907.0,28851.0,28849.0,28856.0,28835.0,28867.0,28865.0,28839.0,28824.0,28831.0,28778.0,28754.0,28772.0,28899.0,28941.0,28870.0,28709.0,28677.0,28698.0,28704.0,28693.0,28666.0,28651.0,28697.0,28561.0,28707.0,28812.0,28760.0,28698.0,28916.0,28960.0,28977.0,29067.0,29081.0,29077.0,29094.0,29058.0,29086.0,29095.0,29051.0,29065.0,29231.0,29237.0,29170.0,29124.0,29102.0,29031.0,29110.0,29177.0,29235.0,29208.0,29050.0,29096.0,29094.0,29145.0,29144.0,29143.0,29120.0,29121.0,29098.0,29072.0,29098.0,29078.0,29091.0,29099.0,29136.0,29127.0,28961.0,26915.0,27046.0,26000.0,26026.0,25849.0,26006.0,25916.0,25945.0,25894.0,25896.0,25928.0,25977.0,25935.0,25982.0,25910.0,25879.0,25799.0,25909.0,25909.0,26026.0,25974.0,25779.0,25842.0,25825.0,25818.0,25915.0,25894.0,25808.0,25841.0,25815.0,25904.0,27062.0,27089.0,26917.0,26937.0,29591.0,30378.0,29813.0,29823.0,30141.0,29938.0,29840.0,29631.0,28813.0,29187.0,28877.0,29099.0,29217.0,28771.0,28474.0,28691.0,29155.0,29598.0,29564.0,29430.0,29136.0,29291.0,29156.0,29128.0,29164.0,29012.0,28703.0,29647.0,29474.0,28116.0,26655.0,26614.0,26340.0,26468.0,26298.0,26320.0,26351.0,26527.0,26247.0,26252.0,26261.0,26327.0,26111.0,26070.0,26087.0,26030.0,26066.0,26582.0,26436.0,26093.0,26218.0,26131.0,26070.0,26201.0,26209.0,26214.0,26012.0,26065.0,25865.0,25983.0,26055.0,25923.0,25753.0,25721.0,25741.0,25870.0,26028.0,26201.0,26005.0,26627.0,26359.0,26122.0,27591.0,27615.0,27631.0,27779.0,27704.0,27825.0,27815.0,27813.0,27895.0,27898.0,27887.0,27949.0,27993.0,28079.0,28179.0,28148.0,28196.0,27942.0,28012.0,27416.0,27964.0,26749.0,26537.0,26446.0,26699.0,26518.0,26448.0,26231.0,26357.0,26315.0,26207.0,26070.0,27309.0,27282.0,27141.0,27235.0,27191.0,27198.0,27224.0,27092.0,27037.0,26970.0,26904.0,26928.0,27008.0,27067.0,27208.0,27252.0,27702.0,27140.0,27079.0,27006.0,26995.0,26751.0,26724.0,26946.0,27323.0,29645.0,29961.0,29691.0,29696.0,29869.0,29813.0,29910.0,29832.0,29526.0,29796.0,29822.0,29620.0,29795.0,29712.0,29248.0,29297.0,29316.0,29593.0,29478.0,29656.0,29563.0,29326.0,29751.0,29711.0,28912.0,28768.0,28664.0,28335.0,28726.0,28695.0,28752.0,28609.0,28416.0,28445.0,28827.0
35476,34747.0,34730.0,34339.0,34344.0,34696.0,35173.0,34534.0,33051.0,33223.0,33890.0,34490.0,34054.0,34809.0,35229.0,34812.0,35015.0,34991.0,35123.0,34834.0,34787.0,34781.0,34726.0,34943.0,34855.0,35148.0,34992.0,34835.0,34924.0,34426.0,34729.0,34560.0,34911.0,34891.0,34615.0,34504.0,34657.0,34935.0,34616.0,34604.0,34746.0,34773.0,34714.0,34765.0,34499.0,34455.0,34627.0,34565.0,34242.0,34777.0,35911.0,35670.0,35700.0,35632.0,35134.0,34896.0,32597.0,34830.0,32535.0,33659.0,33630.0,33716.0,31967.0,31819.0,31416.0,31574.0,31987.0,31702.0,31942.0,31585.0,31254.0,31492.0,31935.0,31833.0,31819.0,31877.0,32048.0,32168.0,32027.0,32081.0,31915.0,31725.0,32046.0,31657.0,31803.0,31604.0,31893.0,31832.0,31834.0,31757.0,31945.0,31903.0,31478.0,31592.0,31796.0,31626.0,31875.0,31581.0,31951.0,31924.0,31902.0,31462.0,31951.0,31701.0,31660.0,31494.0,30844.0,30801.0,30669.0,30810.0,30527.0,30761.0,30960.0,30746.0,30974.0,30587.0,30430.0,31040.0,30866.0,30571.0,30696.0,30597.0,30543.0,30944.0,30725.0,30553.0,33221.0,33181.0,33307.0,32938.0,32989.0,33527.0,33184.0,33549.0,33507.0,34095.0,34006.0,33079.0,30840.0,33387.0,30755.0,30490.0,30304.0,30627.0,29792.0,30160.0,29861.0,29774.0,29849.0,29581.0,29806.0,29676.0,29752.0,29503.0,30460.0,30335.0,31666.0,31043.0,30540.0,30167.0,30705.0,30680.0,30346.0,30088.0,30098.0,29741.0,30242.0,30268.0,30095.0,30281.0,30136.0,29745.0,33258.0,32927.0,32663.0,32422.0,32622.0,32155.0,32324.0,32135.0,32506.0,32289.0,32229.0,32445.0,32255.0,32187.0,32052.0,32359.0,32359.0,32159.0,32551.0,32337.0,32395.0,32498.0,32067.0,32265.0,32229.0,31940.0,31821.0,32038.0,32037.0,32295.0,32426.0,32138.0,32580.0,32576.0,32169.0,32385.0,32112.0,31890.0,31591.0,31778.0,31939.0,31899.0,32504.0,32456.0,31523.0,31501.0,32355.0,34912.0,34984.0,35040.0,34838.0,34774.0,34827.0,34866.0,34846.0,34747.0,34434.0,34763.0,35017.0,34975.0,34877.0,34988.0,34781.0,34889.0,34796.0,34857.0,35210.0,34545.0,34746.0,34665.0,34635.0,34715.0,34892.0,34887.0,34865.0,34771.0,34782.0,34538.0,34960.0,34723.0,34619.0,33975.0,34402.0,34665.0,34811.0,34644.0,34956.0,34760.0,34755.0,34253.0,34771.0,35607.0,35328.0,35309.0,35150.0,35331.0,35315.0,35369.0,35237.0,35013.0,34736.0,34903.0,35097.0,34928.0,33595.0,34055.0,33673.0,33970.0,33893.0,33783.0,33869.0,33802.0,33842.0,33667.0,33756.0,33698.0,33815.0,33801.0,33790.0,33340.0,33196.0,33128.0,33284.0,33387.0,33447.0,33533.0,33151.0,33408.0,33285.0,33269.0,33342.0,33482.0,33390.0,34137.0,33903.0,33328.0,33241.0,35493.0,74336.0,74618.0,73995.0,74157.0,74327.0,73427.0,74221.0,73959.0,73717.0,74284.0,74282.0,74213.0,74673.0,73713.0,74449.0,73896.0,74234.0,73883.0,74564.0,74202.0,74165.0,73813.0,74221.0,74598.0,74940.0,74464.0,74076.0,74055.0,74097.0,74292.0,73706.0,74111.0,74520.0,74231.0,73645.0,73879.0,28875.0,28588.0,28685.0,28952.0,28799.0,28735.0,28876.0,28534.0,28614.0,28563.0,28442.0,28745.0,28367.0,28481.0,28606.0,28381.0,28295.0,28428.0,28069.0,28277.0,28276.0,28473.0,28320.0,28381.0,28167.0,28000.0,28497.0,28412.0,28528.0,28167.0,28142.0,28240.0,28681.0,30480.0,30621.0,30583.0,29614.0,32278.0,32553.0,32014.0,32022.0,32073.0,31720.0,31601.0,31932.0,31820.0,31967.0,31666.0,31631.0,31708.0,31505.0,31412.0,31487.0,31543.0,31610.0,31278.0,31492.0,31040.0,31263.0,30987.0,31595.0,31328.0,31374.0,31780.0,31470.0,31725.0,31583.0,31510.0,31965.0,31513.0,27220.0,27284.0,27325.0,27177.0,27533.0,27340.0,26950.0,26903.0,26816.0,26872.0,27156.0,27189.0,27187.0,27014.0,27046.0,27004.0,26679.0,26710.0,27052.0,27053.0,26844.0,26692.0,26548.0,27045.0,26947.0,27099.0,26923.0,26922.0,27105.0,26726.0,26930.0,26877.0,26621.0,26975.0,26599.0,26772.0,27215.0,26734.0,26874.0,26967.0,26829.0,26937.0,26663.0,26800.0,26809.0,26842.0,26628.0,26759.0,26720.0,26839.0,26638.0,26639.0,26420.0,26416.0,26520.0,26769.0,26591.0,26408.0,26500.0,26240.0,26624.0,26604.0,26313.0,26236.0,26278.0,26249.0,26264.0,26300.0,25914.0,26174.0,26492.0,26277.0,26313.0,26068.0,26343.0,26315.0,26184.0,26375.0,26165.0,26312.0,26539.0,30276.0,30128.0,30100.0,30094.0,29977.0,29922.0,30235.0,30245.0,30052.0,29831.0,30185.0,30004.0,30226.0,30089.0,29961.0,29976.0,29852.0,29759.0,29948.0,30079.0,29753.0,29972.0,29727.0,30031.0,30225.0,30659.0,30294.0,29793.0,29912.0,29926.0,30470.0,30557.0,30685.0,30565.0,30644.0,30698.0,30490.0,30058.0,30823.0,30242.0,27277.0,27343.0,26813.0,26419.0,26585.0,26555.0,26296.0,26666.0,26816.0,26938.0,27159.0,26210.0,27031.0,26959.0,27070.0,26620.0,26369.0,26391.0,26572.0,26687.0,26908.0,26729.0,26798.0,26811.0,27128.0,26988.0,26621.0,26635.0,26644.0,26504.0,26501.0,27191.0,26711.0,27305.0,27044.0,26716.0,26333.0,26594.0,26757.0,26707.0,26505.0,26558.0,26623.0,26766.0,26780.0,26632.0,26668.0,26677.0,26663.0,26634.0,26638.0,27091.0,26644.0,26624.0,26646.0,26727.0,26901.0,26873.0,26788.0,26700.0,26633.0,26735.0,26709.0,26614.0,26712.0,26784.0,26775.0,26820.0,26646.0,26525.0,26536.0,27096.0,26802.0,26560.0,26715.0,26641.0,26563.0,26469.0,26563.0,26303.0,26462.0,26416.0,26662.0,30395.0,30362.0,30486.0,30572.0,30252.0,30173.0,29946.0,30066.0,30115.0,30072.0,30029.0,30160.0,29796.0,29851.0,29988.0,29939.0,30244.0,30157.0,29724.0,29765.0,29747.0,29643.0,29427.0,29549.0,29387.0,29564.0,29647.0,29435.0,29522.0,29182.0,29255.0,29393.0,29374.0,29611.0,29096.0,29382.0,29146.0,29520.0,29282.0,29316.0,27436.0,27444.0,27083.0,27209.0,27621.0,27368.0,27233.0,26927.0,27056.0,27399.0,27210.0,27112.0,26847.0,26896.0,27306.0,27223.0,27068.0,26884.0,27263.0,27059.0,27108.0,27122.0,26980.0,26952.0,27038.0,26948.0,27093.0,27131.0,27149.0,26722.0,26763.0,26887.0,26705.0,26669.0,26754.0,26816.0,26776.0,26734.0,26809.0,27353.0,27075.0,27665.0,31806.0,31760.0,32222.0,31352.0,31372.0,31542.0,31644.0,31797.0,31614.0,31530.0,31344.0,31379.0,31327.0,31379.0,31552.0,31578.0,31372.0,31669.0,31194.0,31413.0,31310.0,31422.0,31763.0,31596.0,31898.0,31846.0,31625.0,31179.0,31086.0,31679.0,31876.0,31938.0,31517.0,31656.0,31555.0,31376.0,31668.0,32176.0,32139.0,31976.0,32033.0,32036.0,31830.0,31930.0,31861.0,31866.0,31588.0,31705.0,31710.0,31642.0,31782.0,31613.0,31462.0,31607.0,31697.0,31542.0,31910.0,31608.0,31631.0,31661.0,31877.0,31332.0,31451.0,31692.0,31397.0,31563.0,31375.0,31392.0,31484.0,31386.0,31738.0,31473.0,31433.0,31283.0,31264.0,31414.0,31278.0,30170.0,30081.0,30125.0,30069.0,29994.0,29976.0,29913.0,29953.0,29909.0,29938.0,30166.0,30079.0,30173.0,30145.0,30004.0,30043.0,30125.0,30144.0,30049.0,30079.0,30136.0,30071.0,30244.0,30196.0,30061.0,30001.0,30288.0,30372.0,30286.0,30157.0,30153.0,30095.0,30064.0,30208.0,30175.0,30053.0,30253.0,33585.0,33609.0,33369.0,33534.0,33519.0,33320.0,33372.0,33222.0,33677.0,33695.0,33586.0,33519.0,33389.0,33350.0,33278.0,33826.0,33673.0,33501.0,33391.0,33374.0,33258.0,33678.0,33511.0,33619.0,33514.0,33288.0,33227.0,33183.0,33039.0,33114.0,32967.0,32830.0,32747.0,33037.0,32950.0,33232.0,33355.0,33198.0,33158.0,33024.0,33159.0,33721.0,33193.0,33161.0,27188.0,27182.0,27433.0,27556.0,27447.0,27522.0,27733.0,27445.0,27514.0,27303.0,27540.0,27300.0,26978.0,26919.0,26859.0,26703.0,27139.0,27114.0,27028.0,26732.0,26475.0,26729.0,27025.0,27211.0,27057.0,26920.0,26674.0,26600.0,26425.0,29433.0,29363.0,29269.0,29130.0,29263.0,29232.0,29293.0,29182.0,28995.0,29134.0,28839.0,28827.0,28870.0,29093.0,29055.0,29097.0,28991.0,28922.0,29181.0,29228.0,29093.0,29199.0,29094.0,28980.0,29096.0,29197.0,29205.0,29203.0,29215.0,29364.0,29247.0,29747.0,29898.0,29923.0,30081.0,30137.0,30091.0,30058.0,30071.0,30055.0,30038.0,29945.0,30014.0,29959.0,29952.0,29944.0,29896.0,29900.0,29776.0,29772.0,29773.0,29681.0,29622.0,29564.0,29608.0,29636.0,29661.0,29611.0,29463.0,29499.0,29612.0,29489.0,29530.0,29606.0,29635.0,29619.0,29702.0,29615.0,29637.0,29677.0,29673.0,29680.0,29652.0,29660.0,29688.0,29677.0,30001.0,29974.0,29594.0,27722.0,27613.0,27521.0,27567.0,27497.0,27497.0,27402.0,27533.0,27539.0,27325.0,27420.0,27473.0,27529.0,27625.0,27707.0,27453.0,27343.0,27297.0,27295.0,27117.0,27368.0,27217.0,27265.0,27449.0,27281.0,27424.0,27641.0,27517.0,27475.0,27488.0,27777.0,27574.0,27568.0,27646.0,27560.0,27630.0,27555.0,27330.0,27444.0,27630.0,27388.0,27340.0,28363.0,27781.0,26224.0,26148.0,26466.0,26361.0,26494.0,26304.0,26474.0,26524.0,26590.0,26250.0,26319.0,26579.0,26635.0,26107.0,26473.0,26547.0,26495.0,26772.0,26631.0,26284.0,26369.0,26268.0,26401.0,26239.0,26213.0,26200.0,26255.0,26241.0,26206.0,26194.0,26093.0,26269.0,26310.0,26066.0,25982.0,26056.0,25981.0,26345.0,26086.0,26638.0,30067.0,30121.0,30020.0,30350.0,30275.0,30244.0,30259.0,30213.0,30545.0,30578.0,30564.0,30550.0,30570.0,30439.0,30468.0,30550.0,30609.0,30608.0,30405.0,30590.0,30582.0,30501.0,30485.0,30874.0,30866.0,30751.0,30611.0,30338.0,30594.0,30419.0,30827.0,30773.0,30686.0,30481.0,30458.0,30355.0,30361.0,30255.0,30247.0,30376.0,30362.0,30302.0,30392.0,28824.0,28871.0,28888.0,28910.0,28960.0,29018.0,29025.0,28969.0,28988.0,28987.0,28978.0,28970.0,28899.0,28854.0,28854.0,28857.0,28833.0,28866.0,28865.0,28820.0,28822.0,28830.0,28777.0,28752.0,28775.0,28901.0,28942.0,28873.0,28708.0,28681.0,28695.0,28708.0,28683.0,28665.0,28654.0,28675.0,28562.0,28709.0,28814.0,28754.0,28696.0,28917.0,28960.0,28974.0,29070.0,29078.0,29075.0,29089.0,29059.0,29086.0,29097.0,29057.0,29067.0,29226.0,29240.0,29162.0,29126.0,29100.0,29032.0,29100.0,29177.0,29234.0,29211.0,29052.0,29084.0,29096.0,29142.0,29140.0,29141.0,29115.0,29125.0,29097.0,29070.0,29095.0,29079.0,29083.0,29101.0,29137.0,29131.0,28953.0,26918.0,27051.0,26002.0,26031.0,25852.0,26003.0,25914.0,25943.0,25891.0,25893.0,25931.0,25983.0,25928.0,25981.0,25912.0,25883.0,25802.0,25912.0,25911.0,26030.0,25974.0,25782.0,25830.0,25827.0,25818.0,25906.0,25897.0,25808.0,25836.0,25819.0,25907.0,27065.0,27090.0,26919.0,26931.0,29606.0,30385.0,29808.0,29826.0,30154.0,29959.0,29864.0,29627.0,28826.0,29202.0,28895.0,29106.0,29244.0,28798.0,28428.0,28706.0,29182.0,29613.0,29514.0,29417.0,29068.0,29306.0,29161.0,29117.0,29079.0,29021.0,28701.0,29650.0,29461.0,28072.0,26634.0,26629.0,26351.0,26475.0,26311.0,26331.0,26363.0,26490.0,26249.0,26264.0,26270.0,26256.0,26116.0,26057.0,26087.0,26035.0,26059.0,26561.0,26434.0,26106.0,26231.0,26135.0,26070.0,26210.0,26218.0,26225.0,26014.0,26076.0,25859.0,25949.0,25987.0,25926.0,25752.0,25731.0,25736.0,25876.0,26028.0,26205.0,26013.0,26628.0,26360.0,26128.0,27593.0,27610.0,27635.0,27775.0,27706.0,27829.0,27814.0,27817.0,27890.0,27901.0,27886.0,27948.0,27989.0,28080.0,28180.0,28144.0,28197.0,27946.0,28006.0,27406.0,27970.0,26750.0,26535.0,26450.0,26702.0,26506.0,26449.0,26233.0,26325.0,26321.0,26207.0,26075.0,27308.0,27285.0,27147.0,27233.0,27193.0,27201.0,27227.0,27071.0,27039.0,26967.0,26905.0,26910.0,27014.0,27070.0,27210.0,27250.0,27695.0,27142.0,27078.0,27009.0,26967.0,26747.0,26711.0,26948.0,27329.0,29642.0,29958.0,29704.0,29704.0,29881.0,29760.0,29921.0,29839.0,29530.0,29796.0,29830.0,29629.0,29809.0,29645.0,29242.0,29295.0,29321.0,29584.0,29481.0,29633.0,29570.0,29325.0,29758.0,29727.0,28909.0,28771.0,28676.0,28346.0,28734.0,28705.0,28753.0,28609.0,28428.0,28462.0,28832.0
35479,34673.0,34745.0,34360.0,34354.0,34681.0,35110.0,34550.0,33081.0,33234.0,33920.0,34508.0,34085.0,34781.0,35246.0,34732.0,35037.0,34990.0,35147.0,34830.0,34796.0,34812.0,34610.0,34940.0,34882.0,35001.0,34954.0,34853.0,34955.0,34447.0,34751.0,34555.0,34852.0,34889.0,34628.0,34419.0,34708.0,34954.0,34629.0,34437.0,34747.0,34672.0,34706.0,34790.0,34498.0,34425.0,34643.0,34586.0,34251.0,34773.0,35929.0,35708.0,35685.0,35655.0,35157.0,34909.0,32594.0,34835.0,32552.0,33658.0,33638.0,33735.0,31915.0,31728.0,31430.0,31574.0,32016.0,31727.0,31965.0,31589.0,31271.0,31490.0,31960.0,31740.0,31835.0,31892.0,32069.0,32178.0,32025.0,32109.0,31935.0,31746.0,31960.0,31656.0,31808.0,31633.0,31793.0,31853.0,31731.0,31784.0,31960.0,31854.0,31477.0,31586.0,31813.0,31660.0,31810.0,31584.0,31976.0,31921.0,31807.0,31459.0,31976.0,31705.0,31684.0,31486.0,30869.0,30813.0,30692.0,30837.0,30496.0,30653.0,30933.0,30765.0,30999.0,30599.0,30438.0,31051.0,30883.0,30488.0,30720.0,30600.0,30530.0,30858.0,30750.0,30573.0,33246.0,33175.0,33177.0,32962.0,33006.0,33492.0,33210.0,33454.0,33518.0,34100.0,34011.0,33112.0,30749.0,33397.0,30780.0,30483.0,30314.0,30657.0,29791.0,30169.0,29857.0,29788.0,29862.0,29621.0,29824.0,29691.0,29780.0,29496.0,30471.0,30270.0,31672.0,31041.0,30549.0,30176.0,30708.0,30694.0,30353.0,30094.0,30121.0,29757.0,30245.0,30167.0,30082.0,30205.0,30053.0,29744.0,33257.0,32929.0,32607.0,32397.0,32518.0,32184.0,32278.0,32170.0,32511.0,32312.0,32217.0,32447.0,32242.0,32201.0,32077.0,32380.0,32380.0,32188.0,32559.0,32329.0,32412.0,32401.0,32064.0,32287.0,32205.0,31930.0,31867.0,32053.0,31998.0,32310.0,32421.0,32141.0,32595.0,32582.0,32170.0,32395.0,32071.0,31896.0,31626.0,31799.0,31964.0,31909.0,32509.0,32477.0,31525.0,31487.0,32307.0,34816.0,35001.0,35054.0,34836.0,34786.0,34846.0,34879.0,34861.0,34616.0,34458.0,34783.0,34956.0,34922.0,34890.0,34999.0,34819.0,34902.0,34837.0,34872.0,35199.0,34387.0,34761.0,34692.0,34659.0,34634.0,34893.0,34903.0,34878.0,34786.0,34793.0,34561.0,34759.0,34754.0,34614.0,33975.0,34401.0,34672.0,34817.0,34636.0,34955.0,34775.0,34760.0,34276.0,34768.0,35557.0,35355.0,35346.0,35161.0,35358.0,35297.0,35371.0,35238.0,35007.0,34747.0,34807.0,35102.0,34938.0,33591.0,34071.0,33676.0,33985.0,33898.0,33802.0,33877.0,33816.0,33863.0,33664.0,33773.0,33631.0,33807.0,33800.0,33803.0,33349.0,33189.0,33149.0,33295.0,33407.0,33463.0,33552.0,33144.0,33303.0,33295.0,33284.0,33314.0,33513.0,33322.0,34147.0,33914.0,33350.0,33263.0,35467.0,74358.0,74569.0,74016.0,74163.0,74269.0,73428.0,74247.0,73971.0,73747.0,74317.0,74131.0,74203.0,74698.0,73714.0,74483.0,73946.0,74254.0,73939.0,74587.0,74210.0,74200.0,73771.0,74267.0,74628.0,74952.0,74499.0,74092.0,74089.0,74119.0,74313.0,73703.0,74117.0,74538.0,74265.0,73603.0,73908.0,28890.0,28612.0,28708.0,28972.0,28814.0,28713.0,28895.0,28495.0,28560.0,28582.0,28450.0,28761.0,28396.0,28445.0,28621.0,28395.0,28251.0,28459.0,28047.0,28276.0,28230.0,28493.0,28340.0,28391.0,28192.0,28005.0,28504.0,28440.0,28468.0,28152.0,28099.0,28256.0,28698.0,30484.0,30631.0,30597.0,29583.0,32273.0,32567.0,31946.0,32045.0,32085.0,31691.0,31613.0,31952.0,31820.0,31978.0,31680.0,31587.0,31728.0,31516.0,31437.0,31484.0,31574.0,31536.0,31231.0,31505.0,31056.0,31267.0,30978.0,31601.0,31317.0,31385.0,31791.0,31456.0,31704.0,31598.0,31447.0,31951.0,31527.0,27237.0,27310.0,27344.0,27109.0,27480.0,27354.0,26972.0,26878.0,26838.0,26832.0,27112.0,27197.0,27203.0,27028.0,27058.0,26923.0,26692.0,26735.0,27065.0,27075.0,26862.0,26703.0,26555.0,27059.0,26877.0,27110.0,26935.0,26935.0,27043.0,26653.0,26943.0,26825.0,26604.0,26986.0,26595.0,26791.0,27224.0,26740.0,26898.0,26977.0,26840.0,26930.0,26673.0,26804.0,26826.0,26851.0,26634.0,26677.0,26728.0,26853.0,26647.0,26653.0,26393.0,26425.0,26533.0,26790.0,26494.0,26402.0,26512.0,26260.0,26637.0,26609.0,26319.0,26252.0,26288.0,26256.0,26273.0,26315.0,25912.0,26182.0,26510.0,26293.0,26322.0,26069.0,26344.0,26333.0,26196.0,26391.0,26166.0,26330.0,26556.0,30293.0,30131.0,30110.0,30104.0,30000.0,29949.0,30234.0,30260.0,30072.0,29855.0,30200.0,30029.0,30146.0,30115.0,29963.0,29982.0,29874.0,29712.0,29835.0,30097.0,29788.0,29989.0,29754.0,29948.0,30243.0,30669.0,30308.0,29805.0,29924.0,29925.0,30504.0,30577.0,30710.0,30592.0,30656.0,30729.0,30491.0,30083.0,30810.0,30238.0,27228.0,27361.0,26838.0,26442.0,26602.0,26497.0,26307.0,26695.0,26831.0,26949.0,27186.0,26226.0,27055.0,26968.0,26995.0,26652.0,26366.0,26343.0,26601.0,26668.0,26933.0,26752.0,26818.0,26832.0,27138.0,26904.0,26641.0,26639.0,26565.0,26529.0,26512.0,27215.0,26648.0,27319.0,27066.0,26742.0,26309.0,26606.0,26730.0,26724.0,26529.0,26526.0,26646.0,26732.0,26789.0,26637.0,26683.0,26690.0,26662.0,26635.0,26625.0,27101.0,26637.0,26625.0,26656.0,26739.0,26861.0,26876.0,26800.0,26714.0,26604.0,26744.0,26718.0,26619.0,26665.0,26783.0,26782.0,26793.0,26649.0,26522.0,26536.0,27089.0,26775.0,26548.0,26696.0,26592.0,26513.0,26472.0,26574.0,26316.0,26456.0,26420.0,26671.0,30347.0,30365.0,30490.0,30568.0,30241.0,30178.0,29947.0,30076.0,30095.0,30072.0,30028.0,30167.0,29814.0,29797.0,29996.0,29953.0,30247.0,30158.0,29712.0,29777.0,29742.0,29655.0,29412.0,29561.0,29389.0,29576.0,29652.0,29436.0,29534.0,29161.0,29269.0,29391.0,29375.0,29621.0,29116.0,29395.0,29150.0,29497.0,29295.0,29316.0,27456.0,27435.0,27088.0,27228.0,27626.0,27297.0,27227.0,26957.0,27020.0,27412.0,27233.0,27130.0,26858.0,26916.0,27297.0,27248.0,27065.0,26870.0,27284.0,27071.0,27020.0,27122.0,26924.0,26888.0,27055.0,26973.0,27110.0,27103.0,27071.0,26733.0,26763.0,26902.0,26632.0,26678.0,26760.0,26819.0,26798.0,26753.0,26826.0,27358.0,27101.0,27675.0,31815.0,31761.0,32119.0,31338.0,31383.0,31517.0,31664.0,31786.0,31604.0,31510.0,31355.0,31391.0,31339.0,31397.0,31549.0,31486.0,31399.0,31665.0,31209.0,31427.0,31323.0,31407.0,31771.0,31446.0,31922.0,31762.0,31626.0,31193.0,31107.0,31703.0,31872.0,31951.0,31477.0,31665.0,31557.0,31379.0,31679.0,32184.0,32148.0,31971.0,32044.0,32052.0,31826.0,31942.0,31871.0,31815.0,31589.0,31703.0,31729.0,31652.0,31792.0,31606.0,31473.0,31601.0,31700.0,31553.0,31918.0,31600.0,31650.0,31666.0,31891.0,31334.0,31443.0,31704.0,31415.0,31593.0,31312.0,31404.0,31498.0,31377.0,31746.0,31471.0,31448.0,31301.0,31225.0,31427.0,31292.0,30174.0,30089.0,30135.0,30079.0,29990.0,29960.0,29922.0,29947.0,29918.0,29948.0,30167.0,30075.0,30165.0,30151.0,30005.0,30054.0,30131.0,30135.0,30049.0,30075.0,30125.0,30064.0,30254.0,30205.0,30066.0,30001.0,30290.0,30372.0,30281.0,30156.0,30145.0,30103.0,30065.0,30212.0,30185.0,30049.0,30238.0,33585.0,33613.0,33370.0,33542.0,33520.0,33329.0,33382.0,33228.0,33680.0,33703.0,33590.0,33528.0,33392.0,33354.0,33282.0,33827.0,33685.0,33498.0,33368.0,33373.0,33256.0,33671.0,33514.0,33633.0,33513.0,33298.0,33236.0,33184.0,33031.0,33126.0,32969.0,32836.0,32755.0,32990.0,32958.0,33229.0,33321.0,33208.0,33164.0,33033.0,33160.0,33701.0,33186.0,33159.0,27188.0,27187.0,27437.0,27585.0,27443.0,27426.0,27744.0,27458.0,27522.0,27317.0,27461.0,27301.0,26996.0,26941.0,26877.0,26708.0,27015.0,27134.0,27041.0,26743.0,26462.0,26738.0,27042.0,27195.0,27073.0,26927.0,26690.0,26596.0,26402.0,29400.0,29368.0,29279.0,29134.0,29260.0,29248.0,29295.0,29182.0,29005.0,29113.0,28855.0,28839.0,28880.0,29034.0,29021.0,29108.0,29005.0,28904.0,29182.0,29237.0,29109.0,29210.0,29103.0,28989.0,29103.0,29186.0,29215.0,29203.0,29224.0,29365.0,29253.0,29744.0,29896.0,29928.0,30084.0,30136.0,30091.0,30058.0,30073.0,30058.0,30043.0,29948.0,29998.0,29958.0,29950.0,29948.0,29899.0,29901.0,29779.0,29775.0,29771.0,29682.0,29622.0,29567.0,29611.0,29635.0,29663.0,29605.0,29465.0,29504.0,29614.0,29490.0,29531.0,29609.0,29635.0,29620.0,29703.0,29617.0,29634.0,29667.0,29668.0,29668.0,29651.0,29659.0,29692.0,29679.0,30004.0,29976.0,29592.0,27727.0,27621.0,27531.0,27521.0,27491.0,27498.0,27402.0,27535.0,27550.0,27333.0,27393.0,27483.0,27539.0,27614.0,27692.0,27433.0,27343.0,27302.0,27310.0,27127.0,27379.0,27214.0,27281.0,27460.0,27292.0,27434.0,27640.0,27520.0,27475.0,27494.0,27782.0,27577.0,27566.0,27648.0,27565.0,27629.0,27562.0,27327.0,27448.0,27628.0,27400.0,27344.0,28371.0,27782.0,26147.0,26163.0,26370.0,26379.0,26511.0,26314.0,26465.0,26543.0,26612.0,26261.0,26327.0,26444.0,26568.0,26079.0,26393.0,26560.0,26513.0,26783.0,26653.0,26304.0,26385.0,26290.0,26420.0,26244.0,26195.0,26218.0,26248.0,26257.0,26220.0,26210.0,26082.0,26283.0,26323.0,26058.0,25980.0,26043.0,25996.0,26357.0,26100.0,26647.0,30071.0,30126.0,30024.0,30354.0,30279.0,30237.0,30239.0,30217.0,30544.0,30582.0,30569.0,30554.0,30570.0,30444.0,30473.0,30553.0,30580.0,30585.0,30410.0,30597.0,30574.0,30508.0,30488.0,30875.0,30872.0,30761.0,30584.0,30343.0,30587.0,30419.0,30833.0,30780.0,30687.0,30484.0,30461.0,30359.0,30368.0,30260.0,30253.0,30385.0,30361.0,30305.0,30363.0,28826.0,28867.0,28893.0,28911.0,28957.0,29018.0,29022.0,28974.0,28989.0,28984.0,28980.0,28975.0,28890.0,28854.0,28856.0,28858.0,28836.0,28871.0,28868.0,28799.0,28821.0,28830.0,28773.0,28746.0,28782.0,28904.0,28944.0,28869.0,28708.0,28684.0,28691.0,28708.0,28672.0,28667.0,28662.0,28655.0,28564.0,28709.0,28819.0,28746.0,28694.0,28916.0,28958.0,28963.0,29069.0,29082.0,29079.0,29085.0,29059.0,29085.0,29096.0,29057.0,29075.0,29230.0,29236.0,29151.0,29124.0,29102.0,29032.0,29092.0,29177.0,29237.0,29214.0,29051.0,29073.0,29101.0,29137.0,29147.0,29142.0,29117.0,29122.0,29098.0,29074.0,29086.0,29079.0,29079.0,29101.0,29137.0,29131.0,28941.0,26919.0,27051.0,26010.0,26037.0,25854.0,26010.0,25915.0,25939.0,25897.0,25897.0,25933.0,25986.0,25913.0,25986.0,25914.0,25881.0,25803.0,25911.0,25912.0,26036.0,25979.0,25784.0,25827.0,25830.0,25825.0,25890.0,25889.0,25811.0,25838.0,25827.0,25909.0,27061.0,27094.0,26924.0,26925.0,29619.0,30395.0,29808.0,29824.0,30166.0,29977.0,29883.0,29626.0,28843.0,29214.0,28904.0,29109.0,29272.0,28834.0,28420.0,28728.0,29211.0,29628.0,29443.0,29362.0,29028.0,29320.0,29164.0,29123.0,29002.0,29032.0,28700.0,29651.0,29392.0,28061.0,26585.0,26639.0,26365.0,26485.0,26325.0,26342.0,26375.0,26415.0,26247.0,26275.0,26278.0,26208.0,26116.0,26048.0,26099.0,26042.0,26048.0,26522.0,26433.0,26113.0,26237.0,26136.0,26070.0,26201.0,26226.0,26236.0,26026.0,26091.0,25850.0,25936.0,25934.0,25924.0,25757.0,25740.0,25736.0,25883.0,26030.0,26210.0,26025.0,26629.0,26361.0,26131.0,27596.0,27610.0,27632.0,27772.0,27713.0,27828.0,27806.0,27819.0,27877.0,27905.0,27889.0,27951.0,27990.0,28083.0,28186.0,28145.0,28199.0,27945.0,28008.0,27397.0,27967.0,26753.0,26537.0,26455.0,26703.0,26497.0,26451.0,26241.0,26297.0,26330.0,26208.0,26086.0,27312.0,27282.0,27146.0,27235.0,27193.0,27207.0,27227.0,27061.0,27041.0,26973.0,26906.0,26882.0,27020.0,27076.0,27216.0,27252.0,27699.0,27143.0,27080.0,27014.0,26939.0,26744.0,26709.0,26948.0,27332.0,29641.0,29957.0,29709.0,29705.0,29892.0,29744.0,29927.0,29854.0,29532.0,29780.0,29839.0,29634.0,29816.0,29607.0,29240.0,29304.0,29329.0,29548.0,29480.0,29571.0,29582.0,29331.0,29753.0,29736.0,28912.0,28776.0,28686.0,28366.0,28734.0,28709.0,28746.0,28614.0,28435.0,28481.0,28838.0
35487,34635.0,34756.0,34384.0,34369.0,34607.0,34988.0,34561.0,33098.0,33218.0,33936.0,34523.0,34100.0,34769.0,35210.0,34690.0,35065.0,34978.0,35168.0,34821.0,34830.0,34829.0,34554.0,34942.0,34905.0,34811.0,34802.0,34870.0,34978.0,34478.0,34777.0,34550.0,34695.0,34804.0,34619.0,34385.0,34755.0,34977.0,34645.0,34303.0,34752.0,34636.0,34715.0,34820.0,34505.0,34420.0,34655.0,34603.0,34262.0,34773.0,35940.0,35756.0,35689.0,35673.0,35196.0,34923.0,32595.0,34851.0,32561.0,33656.0,33666.0,33756.0,31819.0,31622.0,31453.0,31573.0,32042.0,31735.0,31994.0,31598.0,31302.0,31496.0,31980.0,31661.0,31851.0,31905.0,32079.0,32189.0,32020.0,32134.0,31965.0,31756.0,31878.0,31668.0,31809.0,31659.0,31713.0,31877.0,31650.0,31803.0,31980.0,31769.0,31482.0,31591.0,31830.0,31702.0,31708.0,31589.0,32006.0,31925.0,31735.0,31469.0,31997.0,31717.0,31704.0,31502.0,30888.0,30841.0,30722.0,30867.0,30483.0,30571.0,30863.0,30786.0,30992.0,30615.0,30441.0,31058.0,30895.0,30437.0,30732.0,30604.0,30462.0,30758.0,30770.0,30595.0,33258.0,33174.0,33063.0,33003.0,33021.0,33392.0,33228.0,33330.0,33528.0,34100.0,34021.0,33131.0,30650.0,33415.0,30796.0,30503.0,30324.0,30688.0,29799.0,30176.0,29848.0,29811.0,29871.0,29640.0,29828.0,29713.0,29802.0,29494.0,30472.0,30243.0,31659.0,31038.0,30559.0,30184.0,30722.0,30704.0,30362.0,30100.0,30132.0,29768.0,30252.0,30071.0,30081.0,30121.0,29998.0,29725.0,33236.0,32946.0,32531.0,32391.0,32424.0,32198.0,32247.0,32191.0,32529.0,32341.0,32217.0,32433.0,32242.0,32220.0,32107.0,32398.0,32398.0,32219.0,32563.0,32334.0,32435.0,32315.0,32063.0,32312.0,32172.0,31946.0,31911.0,32069.0,31986.0,32325.0,32409.0,32157.0,32606.0,32593.0,32182.0,32407.0,32048.0,31924.0,31654.0,31793.0,31990.0,31933.0,32509.0,32491.0,31537.0,31480.0,32301.0,34765.0,35006.0,35063.0,34827.0,34795.0,34856.0,34895.0,34872.0,34560.0,34496.0,34799.0,34778.0,34762.0,34884.0,35013.0,34846.0,34925.0,34865.0,34872.0,35112.0,34342.0,34766.0,34714.0,34694.0,34628.0,34893.0,34924.0,34890.0,34792.0,34805.0,34604.0,34639.0,34783.0,34609.0,33992.0,34397.0,34688.0,34831.0,34639.0,34950.0,34781.0,34767.0,34303.0,34785.0,35462.0,35370.0,35373.0,35172.0,35376.0,35292.0,35366.0,35227.0,35013.0,34760.0,34781.0,35113.0,34944.0,33587.0,34083.0,33681.0,34002.0,33917.0,33817.0,33884.0,33826.0,33882.0,33651.0,33800.0,33605.0,33809.0,33799.0,33819.0,33369.0,33193.0,33166.0,33316.0,33412.0,33470.0,33567.0,33145.0,33215.0,33300.0,33292.0,33313.0,33528.0,33239.0,34158.0,33926.0,33381.0,33287.0,35463.0,74398.0,74367.0,74033.0,74169.0,74024.0,73458.0,74266.0,74001.0,73760.0,74353.0,74072.0,74204.0,74731.0,73708.0,74516.0,73988.0,74274.0,73968.0,74602.0,74218.0,74231.0,73774.0,74295.0,74671.0,74967.0,74431.0,74102.0,74139.0,74138.0,74328.0,73696.0,74151.0,74554.0,74293.0,73606.0,73947.0,28911.0,28639.0,28734.0,28994.0,28842.0,28690.0,28914.0,28471.0,28518.0,28608.0,28462.0,28779.0,28408.0,28416.0,28643.0,28413.0,28222.0,28480.0,28036.0,28294.0,28200.0,28510.0,28351.0,28369.0,28206.0,28016.0,28524.0,28457.0,28412.0,28148.0,28078.0,28276.0,28709.0,30478.0,30633.0,30600.0,29514.0,32274.0,32580.0,31888.0,32072.0,32101.0,31672.0,31617.0,31972.0,31830.0,31991.0,31701.0,31558.0,31739.0,31534.0,31465.0,31487.0,31591.0,31475.0,31195.0,31514.0,31071.0,31276.0,30970.0,31622.0,31317.0,31390.0,31802.0,31464.0,31648.0,31618.0,31393.0,31950.0,31542.0,27255.0,27327.0,27363.0,27035.0,27410.0,27362.0,26991.0,26851.0,26840.0,26794.0,27040.0,27186.0,27218.0,27049.0,27072.0,26848.0,26692.0,26754.0,27083.0,27088.0,26876.0,26711.0,26562.0,27069.0,26821.0,27132.0,26958.0,26955.0,26968.0,26594.0,26949.0,26776.0,26616.0,27001.0,26598.0,26811.0,27227.0,26754.0,26921.0,26993.0,26847.0,26887.0,26697.0,26822.0,26844.0,26861.0,26625.0,26637.0,26740.0,26862.0,26660.0,26649.0,26387.0,26440.0,26551.0,26798.0,26433.0,26409.0,26524.0,26286.0,26649.0,26566.0,26331.0,26276.0,26305.0,26271.0,26286.0,26318.0,25916.0,26189.0,26517.0,26303.0,26327.0,26077.0,26339.0,26345.0,26211.0,26408.0,26179.0,26343.0,26565.0,30304.0,30135.0,30136.0,30111.0,30019.0,29976.0,30216.0,30271.0,30077.0,29870.0,30218.0,30039.0,30031.0,30134.0,29971.0,29980.0,29895.0,29709.0,29753.0,30118.0,29816.0,30014.0,29784.0,29883.0,30253.0,30672.0,30332.0,29831.0,29940.0,29925.0,30533.0,30604.0,30729.0,30612.0,30665.0,30761.0,30500.0,30100.0,30738.0,30236.0,27183.0,27381.0,26866.0,26472.0,26618.0,26429.0,26327.0,26724.0,26844.0,26966.0,27211.0,26237.0,27086.0,26976.0,26926.0,26690.0,26373.0,26298.0,26627.0,26659.0,26948.0,26770.0,26843.0,26850.0,27163.0,26828.0,26661.0,26657.0,26483.0,26552.0,26536.0,27222.0,26596.0,27335.0,27089.0,26764.0,26290.0,26625.0,26700.0,26753.0,26551.0,26491.0,26667.0,26720.0,26800.0,26635.0,26694.0,26708.0,26668.0,26636.0,26616.0,27102.0,26630.0,26624.0,26666.0,26720.0,26835.0,26875.0,26806.0,26722.0,26593.0,26753.0,26714.0,26623.0,26633.0,26786.0,26790.0,26742.0,26657.0,26521.0,26542.0,27084.0,26777.0,26540.0,26652.0,26541.0,26478.0,26480.0,26583.0,26320.0,26463.0,26418.0,26677.0,30310.0,30373.0,30493.0,30584.0,30232.0,30184.0,29956.0,30091.0,30086.0,30086.0,30038.0,30184.0,29835.0,29767.0,30002.0,29959.0,30231.0,30160.0,29693.0,29786.0,29742.0,29661.0,29401.0,29579.0,29397.0,29597.0,29656.0,29440.0,29541.0,29142.0,29273.0,29363.0,29370.0,29627.0,29125.0,29404.0,29160.0,29486.0,29308.0,29323.0,27464.0,27441.0,27094.0,27241.0,27606.0,27241.0,27234.0,26983.0,26989.0,27423.0,27244.0,27150.0,26879.0,26937.0,27305.0,27259.0,27079.0,26856.0,27307.0,27085.0,26955.0,27089.0,26851.0,26844.0,27077.0,26991.0,27118.0,27025.0,27001.0,26748.0,26771.0,26914.0,26576.0,26698.0,26766.0,26821.0,26818.0,26765.0,26843.0,27372.0,27123.0,27690.0,31823.0,31753.0,31976.0,31331.0,31387.0,31393.0,31683.0,31779.0,31596.0,31502.0,31371.0,31403.0,31349.0,31405.0,31566.0,31454.0,31428.0,31679.0,31231.0,31445.0,31335.0,31408.0,31780.0,31288.0,31953.0,31739.0,31634.0,31162.0,31123.0,31726.0,31874.0,31968.0,31389.0,31683.0,31558.0,31383.0,31678.0,32194.0,32138.0,31970.0,32055.0,32055.0,31829.0,31965.0,31887.0,31781.0,31598.0,31702.0,31731.0,31668.0,31817.0,31604.0,31480.0,31608.0,31689.0,31561.0,31927.0,31590.0,31669.0,31683.0,31868.0,31349.0,31436.0,31715.0,31439.0,31612.0,31251.0,31415.0,31514.0,31374.0,31743.0,31459.0,31466.0,31321.0,31194.0,31447.0,31306.0,30185.0,30095.0,30134.0,30086.0,29987.0,29949.0,29931.0,29951.0,29924.0,29953.0,30166.0,30080.0,30157.0,30162.0,30007.0,30053.0,30135.0,30132.0,30055.0,30087.0,30123.0,30062.0,30257.0,30209.0,30070.0,30000.0,30292.0,30371.0,30285.0,30150.0,30144.0,30102.0,30068.0,30220.0,30190.0,30049.0,30215.0,33586.0,33608.0,33372.0,33545.0,33526.0,33324.0,33393.0,33226.0,33687.0,33711.0,33585.0,33535.0,33393.0,33357.0,33289.0,33826.0,33688.0,33499.0,33358.0,33388.0,33254.0,33645.0,33517.0,33642.0,33516.0,33286.0,33238.0,33166.0,33032.0,33133.0,32976.0,32840.0,32751.0,32926.0,32965.0,33232.0,33270.0,33211.0,33165.0,33042.0,33166.0,33660.0,33176.0,33157.0,27189.0,27190.0,27454.0,27612.0,27451.0,27366.0,27758.0,27477.0,27528.0,27327.0,27369.0,27301.0,27004.0,26943.0,26905.0,26724.0,26947.0,27146.0,27056.0,26765.0,26456.0,26754.0,27060.0,27138.0,27062.0,26933.0,26709.0,26599.0,26394.0,29344.0,29369.0,29285.0,29145.0,29255.0,29252.0,29300.0,29198.0,29005.0,29065.0,28869.0,28841.0,28890.0,29000.0,29018.0,29121.0,29014.0,28905.0,29190.0,29251.0,29127.0,29213.0,29115.0,28997.0,29110.0,29152.0,29220.0,29202.0,29234.0,29368.0,29266.0,29743.0,29900.0,29930.0,30086.0,30139.0,30092.0,30061.0,30076.0,30060.0,30043.0,29949.0,29980.0,29960.0,29951.0,29951.0,29898.0,29900.0,29781.0,29780.0,29775.0,29682.0,29624.0,29572.0,29611.0,29638.0,29666.0,29606.0,29464.0,29506.0,29617.0,29494.0,29533.0,29611.0,29632.0,29616.0,29705.0,29618.0,29633.0,29653.0,29666.0,29666.0,29655.0,29649.0,29692.0,29680.0,30008.0,29975.0,29595.0,27732.0,27632.0,27536.0,27486.0,27494.0,27501.0,27405.0,27544.0,27545.0,27344.0,27386.0,27497.0,27551.0,27542.0,27628.0,27428.0,27345.0,27303.0,27312.0,27143.0,27368.0,27219.0,27298.0,27467.0,27306.0,27440.0,27643.0,27526.0,27477.0,27495.0,27784.0,27580.0,27570.0,27648.0,27570.0,27605.0,27571.0,27333.0,27448.0,27623.0,27412.0,27352.0,28374.0,27788.0,26109.0,26178.0,26295.0,26392.0,26528.0,26330.0,26460.0,26565.0,26631.0,26274.0,26338.0,26389.0,26428.0,26052.0,26363.0,26574.0,26530.0,26752.0,26671.0,26322.0,26397.0,26305.0,26437.0,26257.0,26178.0,26237.0,26249.0,26274.0,26240.0,26220.0,26080.0,26297.0,26336.0,26051.0,25986.0,26031.0,26011.0,26375.0,26113.0,26661.0,30072.0,30123.0,30030.0,30355.0,30283.0,30241.0,30216.0,30221.0,30552.0,30597.0,30574.0,30555.0,30559.0,30445.0,30479.0,30557.0,30558.0,30573.0,30407.0,30590.0,30567.0,30520.0,30498.0,30869.0,30872.0,30759.0,30570.0,30349.0,30579.0,30420.0,30835.0,30783.0,30689.0,30489.0,30463.0,30367.0,30361.0,30265.0,30255.0,30388.0,30365.0,30305.0,30344.0,28825.0,28870.0,28894.0,28907.0,28955.0,29020.0,29021.0,28976.0,28992.0,28993.0,28982.0,28976.0,28886.0,28863.0,28860.0,28866.0,28837.0,28876.0,28871.0,28789.0,28816.0,28830.0,28780.0,28753.0,28785.0,28909.0,28937.0,28874.0,28714.0,28688.0,28688.0,28719.0,28671.0,28666.0,28663.0,28631.0,28568.0,28715.0,28824.0,28743.0,28697.0,28919.0,28962.0,28959.0,29071.0,29082.0,29075.0,29082.0,29059.0,29091.0,29097.0,29055.0,29072.0,29231.0,29237.0,29146.0,29126.0,29111.0,29032.0,29089.0,29179.0,29240.0,29217.0,29052.0,29070.0,29103.0,29130.0,29146.0,29140.0,29116.0,29125.0,29097.0,29075.0,29079.0,29080.0,29078.0,29101.0,29140.0,29133.0,28935.0,26920.0,27052.0,26015.0,26034.0,25857.0,26008.0,25917.0,25923.0,25902.0,25900.0,25938.0,25988.0,25894.0,25987.0,25917.0,25877.0,25803.0,25910.0,25914.0,26034.0,25978.0,25785.0,25827.0,25831.0,25819.0,25874.0,25901.0,25813.0,25842.0,25825.0,25911.0,27061.0,27092.0,26921.0,26923.0,29636.0,30408.0,29813.0,29820.0,30183.0,29999.0,29908.0,29633.0,28873.0,29230.0,28908.0,29119.0,29297.0,28870.0,28429.0,28760.0,29234.0,29646.0,29369.0,29281.0,29006.0,29335.0,29164.0,29144.0,28952.0,29049.0,28709.0,29660.0,29289.0,28073.0,26533.0,26648.0,26376.0,26492.0,26335.0,26354.0,26383.0,26349.0,26256.0,26290.0,26289.0,26182.0,26120.0,26045.0,26105.0,26052.0,26041.0,26490.0,26433.0,26119.0,26234.0,26138.0,26070.0,26159.0,26238.0,26226.0,26031.0,26099.0,25848.0,25931.0,25907.0,25931.0,25767.0,25748.0,25734.0,25893.0,26031.0,26216.0,26028.0,26632.0,26366.0,26130.0,27603.0,27610.0,27633.0,27776.0,27712.0,27829.0,27806.0,27816.0,27869.0,27906.0,27889.0,27957.0,27990.0,28081.0,28180.0,28147.0,28204.0,27946.0,28011.0,27393.0,27971.0,26757.0,26538.0,26461.0,26706.0,26492.0,26457.0,26248.0,26272.0,26337.0,26211.0,26097.0,27311.0,27284.0,27152.0,27239.0,27197.0,27207.0,27234.0,27049.0,27043.0,26973.0,26907.0,26850.0,27021.0,27075.0,27217.0,27255.0,27698.0,27146.0,27081.0,27023.0,26917.0,26752.0,26713.0,26950.0,27332.0,29643.0,29957.0,29712.0,29715.0,29904.0,29741.0,29937.0,29863.0,29540.0,29736.0,29847.0,29633.0,29818.0,29598.0,29236.0,29320.0,29334.0,29484.0,29474.0,29500.0,29590.0,29334.0,29723.0,29744.0,28921.0,28780.0,28696.0,28369.0,28735.0,28715.0,28715.0,28619.0,28444.0,28502.0,28841.0
35508,34615.0,34760.0,34409.0,34376.0,34511.0,34870.0,34557.0,33099.0,33094.0,33951.0,34545.0,34108.0,34768.0,35051.0,34674.0,35092.0,34979.0,35196.0,34818.0,34871.0,34832.0,34524.0,34941.0,34935.0,34692.0,34633.0,34892.0,34996.0,34492.0,34808.0,34548.0,34560.0,34628.0,34619.0,34374.0,34815.0,34999.0,34661.0,34249.0,34759.0,34621.0,34734.0,34842.0,34515.0,34429.0,34660.0,34622.0,34285.0,34774.0,35955.0,35812.0,35691.0,35692.0,35252.0,34937.0,32599.0,34863.0,32575.0,33661.0,33700.0,33774.0,31707.0,31518.0,31487.0,31584.0,32062.0,31732.0,32026.0,31622.0,31337.0,31502.0,32003.0,31600.0,31864.0,31926.0,32073.0,32188.0,32026.0,32146.0,31987.0,31757.0,31829.0,31699.0,31815.0,31684.0,31659.0,31897.0,31587.0,31818.0,31997.0,31675.0,31495.0,31591.0,31854.0,31741.0,31601.0,31592.0,32021.0,31916.0,31689.0,31485.0,32017.0,31738.0,31732.0,31520.0,30902.0,30844.0,30746.0,30898.0,30488.0,30535.0,30755.0,30770.0,30938.0,30621.0,30445.0,31074.0,30901.0,30411.0,30769.0,30567.0,30356.0,30679.0,30779.0,30608.0,33270.0,33189.0,32988.0,33042.0,33039.0,33250.0,33255.0,33224.0,33545.0,34102.0,34040.0,33158.0,30566.0,33427.0,30804.0,30521.0,30336.0,30727.0,29822.0,30169.0,29843.0,29822.0,29895.0,29649.0,29810.0,29728.0,29810.0,29501.0,30467.0,30238.0,31640.0,31043.0,30573.0,30193.0,30725.0,30712.0,30375.0,30102.0,30145.0,29785.0,30257.0,30003.0,30082.0,30060.0,29978.0,29667.0,33214.0,32962.0,32476.0,32406.0,32360.0,32223.0,32239.0,32196.0,32539.0,32362.0,32224.0,32337.0,32248.0,32247.0,32138.0,32416.0,32416.0,32246.0,32565.0,32350.0,32463.0,32267.0,32080.0,32333.0,32149.0,31959.0,31943.0,32089.0,31998.0,32347.0,32386.0,32183.0,32627.0,32598.0,32207.0,32416.0,32046.0,31955.0,31694.0,31770.0,32010.0,31976.0,32510.0,32494.0,31534.0,31481.0,32310.0,34755.0,35016.0,35070.0,34827.0,34785.0,34868.0,34905.0,34886.0,34553.0,34533.0,34807.0,34626.0,34620.0,34881.0,35030.0,34866.0,34944.0,34893.0,34861.0,34915.0,34349.0,34773.0,34734.0,34733.0,34645.0,34897.0,34938.0,34903.0,34804.0,34820.0,34639.0,34601.0,34809.0,34603.0,34016.0,34393.0,34705.0,34842.0,34647.0,34950.0,34789.0,34776.0,34327.0,34797.0,35400.0,35392.0,35401.0,35196.0,35389.0,35289.0,35365.0,35209.0,35022.0,34781.0,34771.0,35125.0,34968.0,33598.0,34095.0,33688.0,34020.0,33933.0,33820.0,33896.0,33847.0,33901.0,33642.0,33824.0,33595.0,33788.0,33807.0,33833.0,33389.0,33204.0,33190.0,33344.0,33414.0,33472.0,33585.0,33143.0,33159.0,33305.0,33306.0,33325.0,33548.0,33166.0,34172.0,33937.0,33406.0,33304.0,35468.0,74436.0,74164.0,74038.0,74181.0,73797.0,73505.0,74295.0,74036.0,73772.0,74401.0,74063.0,74242.0,74731.0,73715.0,74538.0,74021.0,74288.0,73983.0,74619.0,74232.0,74266.0,73804.0,74336.0,74695.0,74991.0,74153.0,74101.0,74159.0,74159.0,74363.0,73708.0,74196.0,74572.0,74320.0,73634.0,73975.0,28925.0,28664.0,28754.0,29009.0,28865.0,28673.0,28932.0,28451.0,28488.0,28630.0,28482.0,28797.0,28430.0,28387.0,28669.0,28433.0,28205.0,28497.0,28042.0,28313.0,28167.0,28527.0,28369.0,28306.0,28230.0,28031.0,28537.0,28474.0,28366.0,28142.0,28052.0,28261.0,28725.0,30429.0,30638.0,30613.0,29447.0,32285.0,32574.0,31846.0,32093.0,32126.0,31673.0,31638.0,31986.0,31831.0,32001.0,31720.0,31538.0,31754.0,31562.0,31479.0,31502.0,31592.0,31445.0,31177.0,31509.0,31088.0,31296.0,30971.0,31634.0,31333.0,31404.0,31816.0,31478.0,31575.0,31640.0,31366.0,31945.0,31552.0,27270.0,27345.0,27374.0,26965.0,27343.0,27378.0,27012.0,26835.0,26849.0,26775.0,26957.0,27136.0,27232.0,27066.0,27086.0,26786.0,26700.0,26769.0,27106.0,27102.0,26892.0,26715.0,26573.0,27079.0,26764.0,27144.0,26972.0,26965.0,26896.0,26544.0,26921.0,26742.0,26626.0,27019.0,26616.0,26835.0,27235.0,26764.0,26941.0,27007.0,26859.0,26774.0,26711.0,26832.0,26858.0,26887.0,26631.0,26618.0,26758.0,26866.0,26682.0,26653.0,26396.0,26450.0,26570.0,26804.0,26388.0,26419.0,26539.0,26306.0,26667.0,26468.0,26350.0,26300.0,26326.0,26283.0,26297.0,26331.0,25920.0,26210.0,26510.0,26314.0,26336.0,26083.0,26333.0,26354.0,26225.0,26419.0,26182.0,26342.0,26576.0,30285.0,30141.0,30144.0,30128.0,30049.0,29991.0,30134.0,30279.0,30088.0,29895.0,30228.0,30046.0,29919.0,30153.0,29984.0,29989.0,29912.0,29731.0,29717.0,30146.0,29846.0,30032.0,29815.0,29845.0,30269.0,30686.0,30354.0,29850.0,29959.0,29939.0,30556.0,30628.0,30754.0,30637.0,30682.0,30785.0,30509.0,30112.0,30625.0,30245.0,27141.0,27400.0,26900.0,26511.0,26643.0,26375.0,26339.0,26759.0,26871.0,26983.0,27230.0,26253.0,27108.0,26988.0,26879.0,26722.0,26383.0,26253.0,26655.0,26656.0,26965.0,26788.0,26864.0,26866.0,27192.0,26765.0,26682.0,26665.0,26414.0,26584.0,26550.0,27192.0,26560.0,27346.0,27100.0,26781.0,26282.0,26651.0,26677.0,26778.0,26579.0,26462.0,26690.0,26717.0,26816.0,26635.0,26707.0,26718.0,26673.0,26649.0,26614.0,27084.0,26635.0,26622.0,26681.0,26673.0,26818.0,26887.0,26817.0,26723.0,26599.0,26751.0,26716.0,26634.0,26614.0,26784.0,26795.0,26694.0,26661.0,26518.0,26541.0,27076.0,26776.0,26540.0,26603.0,26501.0,26462.0,26477.0,26588.0,26329.0,26474.0,26408.0,26681.0,30282.0,30375.0,30501.0,30581.0,30231.0,30191.0,29963.0,30101.0,30074.0,30096.0,30037.0,30186.0,29845.0,29741.0,30008.0,29960.0,30207.0,30169.0,29682.0,29794.0,29737.0,29672.0,29387.0,29589.0,29406.0,29607.0,29658.0,29446.0,29550.0,29118.0,29281.0,29316.0,29385.0,29639.0,29130.0,29398.0,29166.0,29478.0,29317.0,29323.0,27481.0,27451.0,27104.0,27267.0,27541.0,27211.0,27244.0,27006.0,26978.0,27406.0,27259.0,27164.0,26903.0,26952.0,27306.0,27277.0,27100.0,26862.0,27325.0,27106.0,26900.0,27003.0,26766.0,26815.0,27104.0,27013.0,27136.0,26934.0,26954.0,26776.0,26777.0,26904.0,26547.0,26725.0,26760.0,26829.0,26851.0,26776.0,26853.0,27377.0,27134.0,27697.0,31823.0,31768.0,31896.0,31340.0,31388.0,31314.0,31705.0,31784.0,31600.0,31515.0,31382.0,31404.0,31357.0,31400.0,31586.0,31435.0,31441.0,31692.0,31244.0,31465.0,31333.0,31397.0,31791.0,31231.0,31973.0,31728.0,31648.0,31042.0,31129.0,31740.0,31889.0,31969.0,31326.0,31696.0,31561.0,31385.0,31690.0,32199.0,32070.0,31948.0,32060.0,32065.0,31843.0,31990.0,31906.0,31757.0,31611.0,31719.0,31750.0,31669.0,31829.0,31599.0,31494.0,31618.0,31678.0,31553.0,31938.0,31596.0,31681.0,31695.0,31770.0,31353.0,31428.0,31726.0,31458.0,31629.0,31202.0,31423.0,31528.0,31384.0,31689.0,31450.0,31486.0,31338.0,31176.0,31454.0,31320.0,30186.0,30097.0,30140.0,30086.0,29984.0,29948.0,29937.0,29941.0,29930.0,29957.0,30170.0,30083.0,30155.0,30167.0,30014.0,30048.0,30144.0,30134.0,30061.0,30085.0,30115.0,30056.0,30262.0,30219.0,30077.0,29998.0,30292.0,30364.0,30280.0,30156.0,30153.0,30106.0,30065.0,30221.0,30191.0,30056.0,30195.0,33594.0,33613.0,33376.0,33545.0,33529.0,33320.0,33396.0,33234.0,33679.0,33717.0,33598.0,33528.0,33401.0,33357.0,33297.0,33834.0,33692.0,33497.0,33352.0,33392.0,33247.0,33624.0,33527.0,33654.0,33524.0,33252.0,33212.0,33122.0,33034.0,33149.0,32985.0,32843.0,32759.0,32894.0,32970.0,33230.0,33245.0,33216.0,33171.0,33047.0,33173.0,33624.0,33166.0,33152.0,27203.0,27198.0,27464.0,27632.0,27453.0,27357.0,27770.0,27508.0,27548.0,27337.0,27293.0,27309.0,27024.0,26935.0,26913.0,26734.0,26914.0,27156.0,27069.0,26779.0,26448.0,26776.0,27051.0,27036.0,26999.0,26945.0,26729.0,26606.0,26394.0,29309.0,29375.0,29288.0,29148.0,29260.0,29268.0,29296.0,29193.0,29011.0,29030.0,28880.0,28841.0,28898.0,28995.0,29020.0,29131.0,29022.0,28918.0,29197.0,29259.0,29126.0,29216.0,29122.0,29003.0,29117.0,29093.0,29231.0,29199.0,29241.0,29373.0,29261.0,29742.0,29902.0,29930.0,30087.0,30142.0,30092.0,30062.0,30081.0,30064.0,30045.0,29950.0,29967.0,29961.0,29957.0,29952.0,29903.0,29896.0,29785.0,29779.0,29779.0,29682.0,29624.0,29575.0,29616.0,29638.0,29669.0,29609.0,29463.0,29509.0,29614.0,29496.0,29538.0,29616.0,29630.0,29620.0,29709.0,29614.0,29637.0,29646.0,29669.0,29667.0,29659.0,29638.0,29696.0,29683.0,30011.0,29978.0,29592.0,27739.0,27637.0,27547.0,27463.0,27496.0,27509.0,27408.0,27557.0,27503.0,27351.0,27387.0,27511.0,27556.0,27462.0,27555.0,27437.0,27348.0,27301.0,27308.0,27161.0,27310.0,27222.0,27309.0,27475.0,27319.0,27447.0,27651.0,27528.0,27479.0,27500.0,27788.0,27588.0,27577.0,27647.0,27576.0,27572.0,27575.0,27340.0,27454.0,27618.0,27424.0,27360.0,28364.0,27791.0,26085.0,26192.0,26266.0,26404.0,26540.0,26346.0,26464.0,26585.0,26652.0,26284.0,26350.0,26364.0,26349.0,26040.0,26348.0,26586.0,26550.0,26652.0,26680.0,26344.0,26415.0,26329.0,26460.0,26269.0,26156.0,26255.0,26251.0,26297.0,26251.0,26232.0,26067.0,26307.0,26351.0,26044.0,25998.0,26022.0,26025.0,26389.0,26119.0,26672.0,30072.0,30135.0,30032.0,30357.0,30283.0,30243.0,30190.0,30227.0,30558.0,30597.0,30578.0,30554.0,30554.0,30451.0,30483.0,30560.0,30550.0,30568.0,30403.0,30583.0,30561.0,30523.0,30506.0,30861.0,30875.0,30763.0,30561.0,30356.0,30582.0,30416.0,30835.0,30786.0,30693.0,30494.0,30468.0,30377.0,30369.0,30274.0,30254.0,30392.0,30368.0,30309.0,30336.0,28829.0,28876.0,28900.0,28905.0,28949.0,29022.0,29026.0,28974.0,28993.0,28995.0,28987.0,28978.0,28882.0,28864.0,28860.0,28867.0,28844.0,28881.0,28872.0,28777.0,28816.0,28831.0,28782.0,28752.0,28788.0,28907.0,28925.0,28873.0,28707.0,28691.0,28679.0,28718.0,28666.0,28667.0,28667.0,28620.0,28566.0,28719.0,28826.0,28738.0,28697.0,28919.0,28964.0,28962.0,29070.0,29088.0,29078.0,29079.0,29057.0,29094.0,29100.0,29057.0,29064.0,29231.0,29236.0,29144.0,29130.0,29110.0,29033.0,29089.0,29183.0,29239.0,29215.0,29053.0,29070.0,29104.0,29123.0,29148.0,29139.0,29116.0,29129.0,29098.0,29081.0,29073.0,29079.0,29073.0,29105.0,29135.0,29131.0,28933.0,26926.0,27049.0,26020.0,26035.0,25861.0,26013.0,25919.0,25913.0,25900.0,25904.0,25939.0,25992.0,25879.0,25977.0,25926.0,25881.0,25801.0,25912.0,25919.0,26032.0,25978.0,25790.0,25829.0,25834.0,25818.0,25862.0,25900.0,25817.0,25837.0,25823.0,25911.0,27062.0,27093.0,26913.0,26921.0,29656.0,30417.0,29823.0,29823.0,30199.0,30020.0,29928.0,29644.0,28899.0,29245.0,28907.0,29135.0,29320.0,28899.0,28447.0,28787.0,29257.0,29661.0,29310.0,29199.0,29012.0,29348.0,29159.0,29173.0,28928.0,29055.0,28717.0,29674.0,29181.0,28085.0,26498.0,26644.0,26386.0,26501.0,26349.0,26362.0,26374.0,26305.0,26269.0,26296.0,26299.0,26165.0,26131.0,26037.0,26113.0,26066.0,26033.0,26477.0,26436.0,26121.0,26230.0,26137.0,26072.0,26099.0,26256.0,26177.0,26036.0,26107.0,25841.0,25933.0,25894.0,25942.0,25778.0,25751.0,25729.0,25900.0,26036.0,26227.0,26037.0,26636.0,26371.0,26129.0,27607.0,27612.0,27633.0,27776.0,27719.0,27837.0,27804.0,27823.0,27862.0,27908.0,27889.0,27959.0,27992.0,28082.0,28183.0,28149.0,28204.0,27951.0,28012.0,27387.0,27976.0,26757.0,26542.0,26462.0,26704.0,26494.0,26461.0,26250.0,26258.0,26343.0,26214.0,26107.0,27321.0,27285.0,27152.0,27244.0,27200.0,27211.0,27233.0,27045.0,27045.0,26976.0,26903.0,26824.0,27032.0,27071.0,27224.0,27256.0,27701.0,27146.0,27087.0,27025.0,26907.0,26754.0,26714.0,26947.0,27331.0,29653.0,29959.0,29725.0,29716.0,29913.0,29749.0,29941.0,29863.0,29544.0,29673.0,29855.0,29631.0,29824.0,29603.0,29240.0,29328.0,29340.0,29424.0,29470.0,29458.0,29595.0,29345.0,29665.0,29757.0,28922.0,28783.0,28710.0,28374.0,28739.0,28718.0,28680.0,28627.0,28454.0,28526.0,28845.0
35528,34604.0,34740.0,34441.0,34392.0,34455.0,34783.0,34551.0,33093.0,32914.0,33966.0,34555.0,34111.0,34779.0,34878.0,34668.0,35098.0,34980.0,35219.0,34827.0,34915.0,34823.0,34522.0,34943.0,34957.0,34648.0,34553.0,34918.0,35004.0,34496.0,34809.0,34560.0,34495.0,34508.0,34616.0,34391.0,34858.0,35021.0,34683.0,34216.0,34767.0,34626.0,34749.0,34865.0,34528.0,34443.0,34675.0,34645.0,34289.0,34784.0,35966.0,35840.0,35692.0,35720.0,35302.0,34958.0,32618.0,34871.0,32585.0,33672.0,33729.0,33804.0,31606.0,31437.0,31530.0,31602.0,32069.0,31727.0,32050.0,31639.0,31380.0,31511.0,32027.0,31562.0,31888.0,31942.0,32007.0,32186.0,32038.0,32141.0,32009.0,31759.0,31792.0,31740.0,31818.0,31702.0,31619.0,31916.0,31538.0,31847.0,31991.0,31588.0,31517.0,31596.0,31883.0,31775.0,31500.0,31592.0,32027.0,31914.0,31664.0,31508.0,32037.0,31755.0,31761.0,31542.0,30928.0,30822.0,30782.0,30919.0,30493.0,30523.0,30652.0,30722.0,30839.0,30632.0,30457.0,31083.0,30889.0,30402.0,30797.0,30485.0,30237.0,30626.0,30782.0,30626.0,33290.0,33236.0,32959.0,33074.0,33059.0,33113.0,33275.0,33162.0,33552.0,34112.0,34055.0,33182.0,30528.0,33436.0,30810.0,30552.0,30353.0,30750.0,29856.0,30123.0,29856.0,29840.0,29916.0,29654.0,29741.0,29737.0,29821.0,29533.0,30469.0,30241.0,31621.0,31053.0,30586.0,30216.0,30731.0,30723.0,30392.0,30111.0,30155.0,29805.0,30278.0,29970.0,30076.0,30019.0,29983.0,29582.0,33211.0,32974.0,32443.0,32421.0,32325.0,32253.0,32247.0,32181.0,32542.0,32386.0,32240.0,32221.0,32263.0,32281.0,32172.0,32437.0,32437.0,32272.0,32565.0,32376.0,32479.0,32253.0,32110.0,32346.0,32151.0,31981.0,31977.0,32101.0,32021.0,32367.0,32371.0,32218.0,32637.0,32613.0,32246.0,32418.0,32074.0,32002.0,31722.0,31727.0,32033.0,32009.0,32512.0,32490.0,31524.0,31491.0,32333.0,34777.0,35039.0,35082.0,34827.0,34774.0,34886.0,34923.0,34905.0,34565.0,34563.0,34817.0,34570.0,34559.0,34878.0,35039.0,34885.0,34959.0,34918.0,34851.0,34781.0,34377.0,34773.0,34753.0,34770.0,34675.0,34904.0,34951.0,34913.0,34823.0,34846.0,34673.0,34612.0,34826.0,34601.0,34041.0,34391.0,34714.0,34852.0,34656.0,34952.0,34799.0,34773.0,34357.0,34807.0,35386.0,35409.0,35416.0,35213.0,35393.0,35293.0,35302.0,35192.0,35041.0,34798.0,34782.0,35129.0,34991.0,33626.0,34093.0,33693.0,34035.0,33940.0,33806.0,33920.0,33869.0,33923.0,33652.0,33852.0,33609.0,33794.0,33817.0,33844.0,33395.0,33229.0,33218.0,33373.0,33409.0,33439.0,33614.0,33152.0,33121.0,33306.0,33326.0,33335.0,33568.0,33115.0,34180.0,33945.0,33428.0,33321.0,35486.0,74471.0,74049.0,74031.0,74202.0,73674.0,73523.0,74318.0,74071.0,73756.0,74449.0,74085.0,74303.0,74574.0,73735.0,74560.0,74058.0,74320.0,74002.0,74646.0,74260.0,74312.0,73834.0,74361.0,74601.0,75022.0,73887.0,74103.0,74162.0,74182.0,74383.0,73750.0,74231.0,74594.0,74342.0,73666.0,74007.0,28943.0,28683.0,28772.0,29034.0,28885.0,28663.0,28908.0,28446.0,28464.0,28644.0,28495.0,28778.0,28448.0,28364.0,28682.0,28456.0,28185.0,28516.0,28063.0,28325.0,28146.0,28540.0,28390.0,28241.0,28251.0,28038.0,28549.0,28482.0,28334.0,28147.0,28033.0,28204.0,28729.0,30357.0,30638.0,30618.0,29400.0,32295.0,32532.0,31818.0,32103.0,32141.0,31697.0,31657.0,31999.0,31848.0,32010.0,31731.0,31533.0,31764.0,31594.0,31493.0,31508.0,31598.0,31424.0,31160.0,31480.0,31108.0,31312.0,30987.0,31650.0,31359.0,31412.0,31826.0,31498.0,31516.0,31672.0,31347.0,31949.0,31559.0,27281.0,27361.0,27385.0,26906.0,27295.0,27378.0,27034.0,26834.0,26855.0,26761.0,26886.0,27070.0,27222.0,27079.0,27113.0,26744.0,26712.0,26786.0,27118.0,27115.0,26906.0,26719.0,26581.0,27081.0,26734.0,27140.0,26980.0,26980.0,26839.0,26504.0,26877.0,26716.0,26652.0,27035.0,26628.0,26854.0,27235.0,26779.0,26958.0,27022.0,26873.0,26682.0,26721.0,26847.0,26872.0,26909.0,26628.0,26616.0,26768.0,26879.0,26697.0,26665.0,26402.0,26458.0,26582.0,26813.0,26361.0,26431.0,26556.0,26330.0,26679.0,26380.0,26366.0,26317.0,26353.0,26287.0,26291.0,26331.0,25914.0,26222.0,26443.0,26329.0,26351.0,26090.0,26323.0,26366.0,26247.0,26443.0,26202.0,26307.0,26581.0,30240.0,30145.0,30157.0,30155.0,30074.0,30004.0,30036.0,30281.0,30088.0,29915.0,30235.0,30046.0,29839.0,30165.0,30007.0,29992.0,29936.0,29753.0,29715.0,30157.0,29880.0,30051.0,29837.0,29840.0,30281.0,30680.0,30376.0,29876.0,29985.0,29939.0,30570.0,30648.0,30785.0,30655.0,30705.0,30813.0,30516.0,30123.0,30505.0,30256.0,27105.0,27421.0,26929.0,26546.0,26673.0,26324.0,26367.0,26786.0,26893.0,27006.0,27251.0,26276.0,27132.0,27004.0,26846.0,26753.0,26392.0,26213.0,26689.0,26671.0,26993.0,26811.0,26879.0,26886.0,27215.0,26708.0,26706.0,26685.0,26351.0,26612.0,26562.0,27113.0,26527.0,27358.0,27106.0,26804.0,26285.0,26669.0,26673.0,26798.0,26597.0,26448.0,26710.0,26712.0,26824.0,26636.0,26717.0,26724.0,26688.0,26657.0,26605.0,27047.0,26638.0,26618.0,26692.0,26619.0,26808.0,26893.0,26817.0,26736.0,26606.0,26744.0,26715.0,26649.0,26609.0,26785.0,26801.0,26663.0,26669.0,26506.0,26532.0,27074.0,26772.0,26544.0,26572.0,26477.0,26455.0,26487.0,26598.0,26337.0,26481.0,26403.0,26691.0,30267.0,30379.0,30514.0,30587.0,30223.0,30190.0,29974.0,30112.0,30068.0,30099.0,30035.0,30169.0,29850.0,29724.0,30022.0,29964.0,30183.0,30175.0,29665.0,29801.0,29736.0,29693.0,29375.0,29596.0,29413.0,29627.0,29655.0,29455.0,29564.0,29110.0,29289.0,29267.0,29387.0,29649.0,29134.0,29362.0,29177.0,29473.0,29324.0,29339.0,27491.0,27473.0,27116.0,27294.0,27454.0,27194.0,27260.0,27017.0,26972.0,27348.0,27269.0,27184.0,26919.0,26974.0,27322.0,27287.0,27119.0,26881.0,27329.0,27130.0,26870.0,26922.0,26702.0,26804.0,27119.0,27032.0,27148.0,26859.0,26917.0,26803.0,26792.0,26857.0,26526.0,26751.0,26767.0,26843.0,26871.0,26789.0,26870.0,27399.0,27147.0,27711.0,31821.0,31772.0,31868.0,31351.0,31390.0,31290.0,31720.0,31779.0,31614.0,31522.0,31395.0,31387.0,31361.0,31396.0,31583.0,31436.0,31463.0,31715.0,31255.0,31488.0,31274.0,31409.0,31817.0,31223.0,31985.0,31744.0,31679.0,30959.0,31135.0,31751.0,31904.0,31987.0,31302.0,31684.0,31576.0,31389.0,31695.0,32206.0,32007.0,31947.0,32066.0,32071.0,31854.0,32008.0,31896.0,31738.0,31629.0,31718.0,31765.0,31662.0,31836.0,31607.0,31511.0,31623.0,31666.0,31549.0,31945.0,31600.0,31696.0,31701.0,31687.0,31372.0,31430.0,31737.0,31474.0,31647.0,31166.0,31428.0,31555.0,31390.0,31578.0,31445.0,31510.0,31357.0,31174.0,31471.0,31340.0,30192.0,30099.0,30140.0,30090.0,29981.0,29938.0,29946.0,29935.0,29932.0,29965.0,30172.0,30082.0,30155.0,30172.0,30028.0,30030.0,30143.0,30132.0,30066.0,30092.0,30121.0,30061.0,30265.0,30215.0,30085.0,29992.0,30296.0,30373.0,30281.0,30161.0,30148.0,30113.0,30062.0,30229.0,30199.0,30063.0,30180.0,33601.0,33616.0,33388.0,33544.0,33519.0,33311.0,33381.0,33238.0,33671.0,33717.0,33596.0,33495.0,33408.0,33360.0,33300.0,33838.0,33693.0,33493.0,33358.0,33395.0,33246.0,33607.0,33532.0,33664.0,33523.0,33201.0,33173.0,33086.0,33049.0,33152.0,32996.0,32847.0,32769.0,32880.0,32974.0,33225.0,33235.0,33220.0,33177.0,33053.0,33170.0,33608.0,33172.0,33141.0,27233.0,27209.0,27485.0,27635.0,27459.0,27346.0,27787.0,27537.0,27581.0,27353.0,27253.0,27324.0,27052.0,26931.0,26924.0,26725.0,26904.0,27168.0,27079.0,26797.0,26445.0,26793.0,26985.0,26951.0,26904.0,26950.0,26763.0,26617.0,26388.0,29304.0,29385.0,29294.0,29154.0,29270.0,29269.0,29304.0,29183.0,29020.0,29018.0,28893.0,28849.0,28906.0,28999.0,29031.0,29135.0,29029.0,28936.0,29194.0,29265.0,29142.0,29202.0,29127.0,29018.0,29127.0,29034.0,29246.0,29209.0,29243.0,29378.0,29265.0,29746.0,29905.0,29931.0,30089.0,30140.0,30092.0,30062.0,30081.0,30066.0,30049.0,29951.0,29963.0,29962.0,29956.0,29951.0,29902.0,29903.0,29787.0,29787.0,29782.0,29677.0,29624.0,29575.0,29620.0,29638.0,29672.0,29610.0,29460.0,29510.0,29615.0,29498.0,29539.0,29615.0,29631.0,29622.0,29706.0,29601.0,29636.0,29646.0,29668.0,29666.0,29661.0,29627.0,29683.0,29686.0,30014.0,29978.0,29580.0,27744.0,27644.0,27553.0,27461.0,27497.0,27513.0,27408.0,27568.0,27441.0,27360.0,27396.0,27526.0,27523.0,27414.0,27509.0,27454.0,27350.0,27299.0,27305.0,27168.0,27235.0,27224.0,27322.0,27483.0,27335.0,27453.0,27656.0,27533.0,27483.0,27508.0,27793.0,27593.0,27578.0,27648.0,27580.0,27544.0,27577.0,27341.0,27460.0,27619.0,27436.0,27375.0,28325.0,27792.0,26070.0,26210.0,26253.0,26413.0,26556.0,26353.0,26481.0,26604.0,26674.0,26299.0,26369.0,26340.0,26311.0,26037.0,26325.0,26605.0,26566.0,26506.0,26647.0,26363.0,26430.0,26351.0,26478.0,26283.0,26141.0,26272.0,26260.0,26310.0,26269.0,26248.0,26057.0,26323.0,26362.0,26040.0,26011.0,26009.0,26039.0,26404.0,26130.0,26682.0,30073.0,30137.0,30035.0,30355.0,30289.0,30247.0,30174.0,30227.0,30562.0,30609.0,30583.0,30543.0,30554.0,30460.0,30488.0,30556.0,30547.0,30571.0,30397.0,30577.0,30565.0,30533.0,30508.0,30847.0,30879.0,30764.0,30559.0,30363.0,30585.0,30408.0,30824.0,30796.0,30699.0,30498.0,30469.0,30378.0,30369.0,30285.0,30261.0,30400.0,30376.0,30310.0,30336.0,28830.0,28874.0,28901.0,28913.0,28955.0,29023.0,29027.0,28980.0,28990.0,28993.0,28985.0,28982.0,28886.0,28867.0,28867.0,28871.0,28849.0,28880.0,28878.0,28773.0,28819.0,28827.0,28780.0,28752.0,28793.0,28914.0,28911.0,28873.0,28712.0,28692.0,28678.0,28724.0,28663.0,28663.0,28674.0,28610.0,28576.0,28723.0,28825.0,28733.0,28701.0,28918.0,28969.0,28961.0,29074.0,29081.0,29080.0,29077.0,29058.0,29092.0,29103.0,29057.0,29058.0,29234.0,29239.0,29143.0,29130.0,29111.0,29037.0,29089.0,29179.0,29243.0,29214.0,29053.0,29068.0,29103.0,29115.0,29147.0,29139.0,29119.0,29131.0,29101.0,29080.0,29067.0,29085.0,29076.0,29110.0,29127.0,29137.0,28929.0,26916.0,27053.0,26022.0,26041.0,25864.0,26011.0,25917.0,25905.0,25902.0,25904.0,25938.0,25992.0,25871.0,25959.0,25931.0,25877.0,25804.0,25911.0,25918.0,26030.0,25977.0,25794.0,25836.0,25834.0,25820.0,25860.0,25906.0,25818.0,25842.0,25821.0,25914.0,27068.0,27094.0,26908.0,26919.0,29684.0,30426.0,29840.0,29828.0,30203.0,30034.0,29947.0,29663.0,28923.0,29263.0,28907.0,29156.0,29338.0,28919.0,28472.0,28816.0,29280.0,29674.0,29272.0,29133.0,29020.0,29357.0,29155.0,29203.0,28930.0,29063.0,28729.0,29697.0,29088.0,28105.0,26475.0,26625.0,26399.0,26511.0,26361.0,26372.0,26325.0,26281.0,26276.0,26311.0,26311.0,26162.0,26142.0,26031.0,26121.0,26070.0,26031.0,26476.0,26437.0,26122.0,26229.0,26139.0,26078.0,26047.0,26263.0,26102.0,26044.0,26102.0,25839.0,25938.0,25887.0,25945.0,25787.0,25749.0,25732.0,25907.0,26049.0,26231.0,26046.0,26640.0,26374.0,26129.0,27608.0,27616.0,27634.0,27774.0,27722.0,27836.0,27808.0,27820.0,27862.0,27911.0,27896.0,27963.0,27991.0,28088.0,28185.0,28145.0,28206.0,27954.0,28010.0,27385.0,27976.0,26757.0,26543.0,26469.0,26704.0,26501.0,26460.0,26256.0,26249.0,26346.0,26219.0,26113.0,27322.0,27283.0,27156.0,27246.0,27203.0,27207.0,27229.0,27047.0,27049.0,26974.0,26903.0,26803.0,27036.0,27074.0,27224.0,27265.0,27696.0,27155.0,27083.0,27032.0,26904.0,26755.0,26714.0,26954.0,27335.0,29657.0,29966.0,29725.0,29714.0,29919.0,29758.0,29949.0,29869.0,29548.0,29613.0,29864.0,29627.0,29825.0,29611.0,29243.0,29337.0,29342.0,29394.0,29465.0,29443.0,29605.0,29361.0,29593.0,29763.0,28921.0,28785.0,28714.0,28383.0,28742.0,28726.0,28648.0,28634.0,28470.0,28542.0,28841.0
